Time (s),Signal
0.0,-0.0023990932787331075
0.001,-0.0008017824776811754
0.002,0.013650712478408707
0.003,0.022911151649311443
0.004,0.0048611881725635206
0.005,-7.229127334969503e-05
0.006,0.017532268191740637
0.007,0.007216199665780451
0.008,-0.0028000551538774625
0.009,0.006480250922363902
0.01,-0.0031084437351958393
0.011,-0.0047241482648948604
0.012,0.0012952169253565152
0.013,-0.019713167747801144
0.014,-0.01927118956135234
0.015,-0.006355487331283058
0.016,-0.015124726736868033
0.017,-0.0007972941983537961
0.018,-0.016243905174586414
0.019,-0.01539902149700393
0.02,0.01641045226728008
0.021,0.008356084007577194
0.022,0.01480026960047924
0.023,0.0018212074784206876
0.024,0.008964785612461808
0.025,0.010614257592854122
0.026,-0.0029881121420005504
0.027,0.008537227147099528
0.028,0.0016189602397998965
0.029,0.0023125666693924306
0.03,0.0004569529107390284
0.031,0.021917006025433783
0.032,0.0017179162438919712
0.033,-0.009155028031891577
0.034,0.007197232593459632
0.035,-0.011185307335345486
0.036,-0.0019317611106736362
0.037,-0.0214587883520606
0.038,-0.02026066245177747
0.039,0.0006164232248512349
0.04,0.006452556397002165
0.041,0.009543081867086389
0.042,0.00837790432808526
0.043,0.009755792585353591
0.044,-0.0053940986760272185
0.045,-0.0007952252043637306
0.046,-0.0017023298473620705
0.047,0.012048906411346788
0.048,0.005614567781433248
0.049,-0.01558134533603834
0.05,0.005524693267715505
0.051,-0.004321908651799835
0.052,-0.008165311661021062
0.053,0.002093788938522889
0.054,0.007265050988161496
0.055,0.004365811050009976
0.056,-0.012655067144131425
0.057,-0.010800611802658582
0.058,-0.0033733929320533085
0.059,0.0022359980420634247
0.06,-0.006143581471564564
0.061,-0.0006427911260677324
0.062,-0.002842852296277365
0.063,-0.006143540889061419
0.064,0.01619248674492984
0.065,0.013324855163386537
0.066,0.0024611903756748483
0.067,0.005614415231703064
0.068,0.007904469915339189
0.069,-0.01019410614847928
0.07,0.009017895752131326
0.071,0.009558917143519297
0.072,0.0020914134672782307
0.073,0.007974047279965566
0.074,-0.025513364524635714
0.075,0.0017402465084139101
0.076,-0.0009676788297850494
0.077,-0.009613886492258495
0.078,-0.004674719498211221
0.079,-0.0238677919559833
0.08,-0.004535555394548399
0.081,0.008913197296708874
0.082,0.019754598070021185
0.083,0.00516745149166312
0.084,-0.003528595023235051
0.085,0.0003598828338193387
0.086,0.009436115290643952
0.087,0.004875812042610043
0.088,-0.003608280918270495
0.089,0.0074037102360506556
0.09,0.0043242033713094905
0.091,0.009989560210523045
0.092,-0.005976722851230809
0.093,-0.005385748531024066
0.094,-0.004163869627761647
0.095,-0.016641075392042307
0.096,0.0011245886549284567
0.097,-0.0009426552898673338
0.098,-0.004764641398611158
0.099,-0.005389941099959456
0.1,-0.015624965407120932
0.101,-0.000144697679216954
0.102,0.0022602997999018543
0.103,-0.0005590568050212643
0.104,0.003437774435118126
0.105,0.005597896822313138
0.106,0.01949090437719183
0.107,-0.0006173514556446169
0.108,0.004847880803556008
0.109,-0.001781261171305569
0.11,-0.015108331715541575
0.111,-0.0026911346229834057
0.112,0.0015241756254172748
0.113,0.020314271160355533
0.114,-0.003322884289526269
0.115,0.0002790414098775961
0.116,-0.004002212591591324
0.117,-0.014300426511026922
0.118,0.0037430423923567302
0.119,0.006037781314596381
0.12,0.0023630818965499328
0.121,-0.0036225788948864583
0.122,0.015313616714494835
0.123,-0.005433010486835971
0.124,0.007573290759069243
0.125,0.024498834335312934
0.126,-0.010708895874286037
0.127,-0.007488695982212532
0.128,0.0034496845977301325
0.129,-0.006513487668510122
0.13,-0.00926499365086106
0.131,-0.002503463541471084
0.132,-0.004891669309485935
0.133,-0.0009452543350737829
0.134,-0.004117288922722356
0.135,0.009657100146726733
0.136,-0.003952685218180577
0.137,-0.010061516830941118
0.138,0.009178522896424112
0.139,-0.01856716171349533
0.14,0.004890730645109937
0.141,0.012888206709132932
0.142,-0.008861623504286348
0.143,0.00552085719883638
0.144,0.008204353783586273
0.145,0.008175610713565092
0.146,-0.011926271326277611
0.147,-0.015102191319849
0.148,0.005162125925297892
0.149,0.0031447949192146118
0.15,0.0038598796533504368
0.151,0.004187230321972914
0.152,-0.006649409845806853
0.153,0.0014631992999129782
0.154,0.0016735492003067554
0.155,-0.009155579258689284
0.156,0.015964378713421375
0.157,0.0005436902594032322
0.158,-0.016864781673136355
0.159,0.001558498624345785
0.16,-0.013080906302236328
0.161,0.007288852532755418
0.162,0.013026645992469972
0.163,-0.005558171454353407
0.164,0.010408920457352831
0.165,0.002988057240725485
0.166,0.004413438780521147
0.167,0.014566795255631565
0.168,-0.005618714012930211
0.169,-0.010133719840569086
0.17,-0.008347218180779005
0.171,-0.010292526782207777
0.172,0.0008028322777244837
0.173,-0.0008118991334824749
0.174,0.004895397635449316
0.175,0.002480849620586081
0.176,0.002345890797249783
0.177,0.005985460805605521
0.178,-0.0022948408506595474
0.179,0.01728443252997273
0.18,0.008199070354126307
0.181,-0.013584786574507785
0.182,-0.004082966397237046
0.183,0.004192128336100526
0.184,0.0030336480543502018
0.185,0.004204439673859603
0.186,0.0040852817157353664
0.187,-0.005379520908022878
0.188,-0.010508270753877705
0.189,-0.01632773136133326
0.19,-0.004601599383930015
0.191,0.01044263802633096
0.192,0.0020112949596971515
0.193,-0.010182246605810127
0.194,0.0005567343311674653
0.195,0.005352577221525915
0.196,-0.011734963456969366
0.197,0.00021047917273271454
0.198,-0.004837847558844297
0.199,-0.015328417711321249
0.2,-0.0004745187471634152
0.201,0.0036592854787555074
0.202,0.012492582749247364
0.203,0.010444709462536025
0.204,-0.010246435088906863
0.205,-0.014221566279608399
0.206,0.005146940573514461
0.207,-0.005262474873583278
0.208,0.004760960168051575
0.209,0.029326792936219974
0.21,0.00916408853161375
0.211,0.0061527911071721526
0.212,0.014300664538707392
0.213,0.0033755614546627224
0.214,-0.0006067908119859507
0.215,0.005723301871137327
0.216,-0.009258373685214046
0.217,-0.004302795179815744
0.218,-0.011836708474136884
0.219,-0.0010950846992015563
0.22,0.014786521457834368
0.221,-0.015868475943634282
0.222,0.0029517153860080018
0.223,-0.009036960058855695
0.224,-0.007417830636906452
0.225,0.013967720754924744
0.226,-0.0059138656195937105
0.227,-0.013578069680563309
0.228,-0.013047687568502301
0.229,0.004676921395430186
0.23,-0.006651627192329795
0.231,0.003125444941491373
0.232,0.005987471643658769
0.233,-0.00558526302144425
0.234,0.028049176457057422
0.235,0.0051237489956447
0.236,-0.015110401183603793
0.237,-0.0030528057721977125
0.238,-0.004989986704806862
0.239,0.001123205319314864
0.24,-0.006610825684532576
0.241,-0.004717299259170549
0.242,0.010456493792811798
0.243,0.010072208270816736
0.244,-0.007043764573821725
0.245,-0.004306480730621087
0.246,-0.006623164357025811
0.247,-0.01177113550537934
0.248,0.013375716938857841
0.249,0.0017579704752721187
0.25,-0.011654960321423683
0.251,0.012853722205833595
0.252,0.026959555310663665
0.253,0.015934702370520526
0.254,-0.00885178127255706
0.255,-0.0014592747891429096
0.256,0.01611915593902448
0.257,-0.008341507606304996
0.258,0.0036208504361882003
0.259,0.003985398728024971
0.26,-0.01026536526582644
0.261,4.9126746412774284e-05
0.262,-0.029348874854253325
0.263,-0.004215839473947458
0.264,-0.0005759315900928914
0.265,-0.008832766808783763
0.266,0.010343080138786105
0.267,-0.015357377789936252
0.268,-0.01366570771573416
0.269,0.0033600099329532257
0.27,0.011265699797675303
0.271,-0.004587963090038604
0.272,0.01500571869540889
0.273,0.012542119398553864
0.274,-0.006584779278050489
0.275,0.013482762448709459
0.276,0.00046615817640570313
0.277,-0.002310930988515804
0.278,-0.005827895401078956
0.279,-0.0025354430596284437
0.28,-0.006304240549811938
0.281,0.01139754959159915
0.282,0.012323412109327303
0.283,-0.0031383400014616866
0.284,0.0181763040910426
0.285,-0.014457367020088655
0.286,-0.011906989459781978
0.287,0.0024245840723885817
0.288,-0.010414887643847114
0.289,-0.008562652290548051
0.29,-0.006137735538776999
0.291,0.0013138671408042864
0.292,-0.0005831775404977649
0.293,0.017069130109794283
0.294,0.008440575977055473
0.295,-0.003993649900619822
0.296,0.008010350128490414
0.297,-0.0005022376414444146
0.298,0.0020741655450045695
0.299,-0.00022753655044023438
0.3,-0.015051339803940763
0.301,-0.0088946588900898
0.302,0.004961435817175899
0.303,0.007972892200734473
0.304,-0.0023749451790975418
0.305,-0.0006637114824289184
0.306,0.0012666316356671654
0.307,-0.0165135272103785
0.308,-0.011106961792329331
0.309,-0.00951751148320391
0.31,-0.008714204164797961
0.311,0.016328148946003478
0.312,0.012930171852655523
0.313,0.017748301852360635
0.314,0.01699002620633821
0.315,0.0029759115065846964
0.316,0.0046285308163736775
0.317,-0.00803071092239032
0.318,-0.002577150422310193
0.319,-0.010100637915725677
0.32,-0.003840403039195437
0.321,-0.00018328150125175558
0.322,-0.006401576490628961
0.323,0.021055570054728023
0.324,-0.005965495995436902
0.325,-0.015249552412509106
0.326,0.0048502093349951595
0.327,-0.005094172428788355
0.328,-0.0077488934684929595
0.329,-0.0015913524016062466
0.33,-0.0023620368997795313
0.331,0.0014129680393078381
0.332,0.011899503111630677
0.333,0.010540651484088729
0.334,0.01858886604589765
0.335,0.008054786441686453
0.336,-0.007999597568266507
0.337,-0.0022119979587516005
0.338,-0.00014298137124332268
0.339,-0.008834902122989671
0.34,-0.011506080970082584
0.341,0.001634527002465982
0.342,0.006864668835583388
0.343,0.0004058525153420817
0.344,0.003055997470240326
0.345,0.002440123610733482
0.346,-0.019220381083351654
0.347,-0.028161929803386783
0.348,-0.02104359925116888
0.349,-0.012408118164379854
0.35,0.0031286670549068385
0.351,0.02554284195440047
0.352,0.024565779168673984
0.353,0.01702500039190049
0.354,0.011415140534492451
0.355,-0.0017584155342625766
0.356,-0.0011323588733673172
0.357,-0.004851542534125474
0.358,-0.004521630977438266
0.359,-0.014621580986876844
0.36,-0.002920019131091726
0.361,0.012130431402763448
0.362,-0.0012303244317225456
0.363,0.009325372575988592
0.364,0.0103444400154892
0.365,-0.004407437754590822
0.366,-0.01071584628392597
0.367,-0.017938347044297143
0.368,-0.024284441533266164
0.369,-0.020538309521857125
0.37,-0.007293267870510392
0.371,0.019519894299349753
0.372,0.027296503127197603
0.373,0.033706153642685976
0.374,0.028625251477242295
0.375,0.003152410837205229
0.376,0.0015689653226704224
0.377,0.00088224861783392
0.378,0.009160405907801202
0.379,-0.014030904779584883
0.38,-0.01935180126440245
0.381,-0.009142621784236254
0.382,-0.019973185566361257
0.383,0.0013357492105757693
0.384,0.0018609391582038452
0.385,5.024780285152724e-05
0.386,-0.004588272681320041
0.387,-0.007743559371665246
0.388,-0.01197904340058241
0.389,-0.028596958306879586
0.39,-0.005144013667519855
0.391,0.014972641475823768
0.392,0.018618598333344418
0.393,0.03803473760643561
0.394,0.03596163761697706
0.395,-0.003575260772912518
0.396,-0.011330723169972755
0.397,0.001881383839166574
0.398,-0.0023735392586582173
0.399,-0.002576198027245742
0.4,-0.018549388699882114
0.401,-0.016336880860338424
0.402,0.007395443516205533
0.403,0.005344581946063194
0.404,0.01046174814731456
0.405,0.005938464794651266
0.406,-0.020742257564467702
0.407,-0.03147898530918483
0.408,-0.031608445283532086
0.409,-0.020026025497413315
0.41,0.0025484415784979425
0.411,0.0074257175931078
0.412,0.013684748426379335
0.413,0.04423757139790613
0.414,0.019570444048332695
0.415,-0.0007124213326147981
0.416,0.008301058429156748
0.417,-0.00663933540585949
0.418,-0.0006829256035431781
0.419,-0.010852009309417958
0.42,0.007660189814782967
0.421,0.008475889716017145
0.422,-0.0019865170393040575
0.423,0.018962255271268807
0.424,0.02101947851762017
0.425,0.018104571068515176
0.426,-0.023633057428905726
0.427,-0.027221607422149522
0.428,-0.03252126641521025
0.429,-0.046724887335628934
0.43,-0.018410723145328642
0.431,0.0067326916464003385
0.432,0.03459127892419682
0.433,0.049991881352939124
0.434,0.035993910113346114
0.435,0.011417755921455879
0.436,0.009598827219708575
0.437,-0.019224134334902214
0.438,-0.026230672465944634
0.439,-0.009069844014346115
0.44,-0.005265959309700205
0.441,-0.007755007550087619
0.442,-0.013650149459272225
0.443,0.014377408178890532
0.444,0.014468678987310406
0.445,0.017702344769357663
0.446,-0.002443533023381801
0.447,-0.048880610733492875
0.448,-0.04981258481353573
0.449,-0.04815590502581798
0.45,-0.0007548472395011908
0.451,0.041842854000465016
0.452,0.045205162519451864
0.453,0.056781674718069844
0.454,0.02579424040771104
0.455,0.0022487496390092288
0.456,-0.008325555164478507
0.457,-0.017278437789367142
0.458,-0.016436817040261426
0.459,-0.01890692846433343
0.46,0.0053167844775571585
0.461,-0.006448236065920537
0.462,-0.006071664758494936
0.463,0.024057429095947748
0.464,0.02671409591003928
0.465,0.017531559223418862
0.466,-0.006915141375768659
0.467,-0.038711997253329015
0.468,-0.07041649919470477
0.469,-0.054611538791648255
0.47,-0.01231737715951335
0.471,0.015584241798608728
0.472,0.047081620039274734
0.473,0.07482512637971084
0.474,0.04718451719148867
0.475,0.0024537194247106382
0.476,-0.010943086930851428
0.477,-0.011463839836302791
0.478,0.015033529364372508
0.479,-0.00033386631643782597
0.48,-0.02078103514383491
0.481,-0.02352442980205621
0.482,-0.019229575040995858
0.483,0.02506710379740436
0.484,0.026889622608973488
0.485,0.012397327491528278
0.486,-0.020322094580792566
0.487,-0.0676762895756898
0.488,-0.06634838675910715
0.489,-0.05510847695585895
0.49,-0.013374931875452318
0.491,0.06251121213623581
0.492,0.08165017196603563
0.493,0.06647542603406256
0.494,0.05518943633804639
0.495,0.005684435307639048
0.496,-0.028376664822933124
0.497,-0.0221615883350789
0.498,-0.01808351409645005
0.499,-0.026404094032599128
0.5,-0.005655944349337078
0.501,-0.0008860908637115424
0.502,-0.012938695555694362
0.503,0.03349205218270674
0.504,0.04635178844737664
0.505,0.03364805146886494
0.506,-0.011878877573625157
0.507,-0.07457389021540387
0.508,-0.09864412331414495
0.509,-0.08691306228636837
0.51,-0.009329840433511795
0.511,0.058884441931807446
0.512,0.09738835871701886
0.513,0.0819535199834084
0.514,0.041966540300446525
0.515,6.663082566944756e-05
0.516,-0.034373147985501014
0.517,-0.023192844547768696
0.518,-0.0029349558171521337
0.519,0.006601827251725076
0.52,-0.031302182734591164
0.521,-0.02506064223198491
0.522,-0.011936505546132882
0.523,0.023938876972178752
0.524,0.07796679346252676
0.525,0.007325322782923631
0.526,-0.052358403851251636
0.527,-0.08804527798766275
0.528,-0.09540198936165842
0.529,-0.10065373913537556
0.53,-0.05746355066147019
0.531,0.05350116608160246
0.532,0.10449725787518124
0.533,0.11625873555646653
0.534,0.06278185081490788
0.535,0.0683156974493228
0.536,-0.0011367674423125931
0.537,-0.029425566655675514
0.538,0.06085619196012145
0.539,0.041617266743311745
0.54,0.0015828590628345256
0.541,-0.09712894841070399
0.542,-0.03514438897788635
0.543,0.015970983066541357
0.544,0.045165378402385874
0.545,0.05324911210582056
0.546,-0.1420397629448938
0.547,-0.09770741390028376
0.548,-0.05631159707334618
0.549,-0.08761434087586273
0.55,-0.001283049715680795
0.551,0.06698294141571182
0.552,0.14666871302814408
0.553,0.16158089561637626
0.554,0.043768871741174616
0.555,-0.040293432690905816
0.556,-0.012305531530388603
0.557,-0.019925883360863705
0.558,0.016273087456544155
0.559,-0.0015268398485087653
0.56,-0.06316214326745101
0.561,-0.0026860403626618803
0.562,-0.09631305290341072
0.563,-0.11835292167622496
0.564,0.10377708561975288
0.565,-0.03505397382298131
0.566,-0.07621819490496237
0.567,0.05829970565299001
0.568,-0.04626870411560802
0.569,0.01593845825289851
0.57,-0.10555001825287022
0.571,0.03723026379749599
0.572,0.19949033241826472
0.573,0.02235745140008944
0.574,0.1584406572629818
0.575,-0.048791404326659384
0.576,-0.12344169601499731
0.577,8.497285787807327e-05
0.578,0.021536710753383384
0.579,0.16341943798094888
0.58,-0.17717871835632537
0.581,-0.17526332605575154
0.582,-0.04500426252150035
0.583,-0.14353746786714444
0.584,0.26256840542398296
0.585,0.31150210818187024
0.586,0.03621335615930227
0.587,0.02382154792816754
0.588,0.148331970358025
0.589,-0.10826585290445856
0.59,-0.2554082071824174
0.591,-0.2010200495885848
0.592,-0.1497822376708201
0.593,0.3921487805172611
0.594,0.06388926338596328
0.595,-0.19250912535229503
0.596,-0.10224745727813216
0.597,-0.3564844835189708
0.598,-0.1329642175577436
0.599,0.13401425078091359
0.6,0.20822488783092574
0.601,0.02412939338722707
0.602,0.06574241459186639
0.603,0.15498943431256806
0.604,0.3147208775161679
0.605,0.11173228955176212
0.606,-0.15249059128265807
0.607,-0.04230794706762157
0.608,-0.08516215941897132
0.609,-0.04352843314009992
0.61,-0.17602748068900198
0.611,0.26538686180279014
0.612,-0.006854456594201641
0.613,-0.3115042417001456
0.614,0.15853377633762347
0.615,-0.02287097741204254
0.616,0.2572806276304917
0.617,-0.2220105696204575
0.618,-0.14090768608585091
0.619,0.5403171038686603
0.62,-0.17401117262936527
0.621,-0.0888633336660255
0.622,-0.03584820327621968
0.623,0.13581480394409892
0.624,0.3086601833290332
0.625,-0.2556448909621051
0.626,-0.2855758621897972
0.627,-0.15897553210452425
0.628,0.026874745564257174
0.629,-0.11248739613214646
0.63,-0.14278231587150894
0.631,-0.15758158583358317
0.632,0.10043052951582493
0.633,0.26192674781375214
0.634,-0.14938636096192745
0.635,-0.058946996244164815
0.636,0.13671609150366706
0.637,0.20275217283451313
0.638,0.13790986397714172
0.639,0.10775992971680046
0.64,-0.1010786524937976
0.641,0.027477373619930856
0.642,0.038097059546033984
0.643,-0.2349516381459905
0.644,0.019932302398550886
0.645,-0.18097585619859097
0.646,-0.6693483094271362
0.647,-0.15708194675440487
0.648,0.1218069921134173
0.649,0.3072198150118456
0.65,0.5651753321131461
0.651,-0.4188087161997468
0.652,0.18791913842307534
0.653,0.3503505381586266
0.654,0.1157801729090007
0.655,0.2023990666228548
0.656,-0.10189588201419737
0.657,1.2218788504446092
0.658,0.16670972968474917
0.659,-0.2042366731634661
0.66,0.013515520638901247
0.661,-1.3166583439086659
0.662,-0.48828168658364135
0.663,-0.16049010700822455
0.664,0.19283671284876422
0.665,0.28185793207999676
0.666,-0.4727820472949859
0.667,0.1710639877547575
0.668,0.08752575133992588
0.669,0.08633543955172818
0.67,0.3120402891272913
0.671,-0.5190242463951624
0.672,0.009300712364269673
0.673,0.20179598261049508
0.674,0.7278792723422686
0.675,1.027195896428286
0.676,-1.075299020458119
0.677,-1.0478436758557563
0.678,0.012059121455579858
0.679,0.32928799959851573
0.68,-0.0706123753760785
0.681,-0.5607992034034317
0.682,-0.4289541191983704
0.683,0.36105359182652064
0.684,0.7974904792920454
0.685,-0.9111364881741526
0.686,-0.02114841305028277
0.687,0.5339978556397837
0.688,0.3870385161334883
0.689,1.5166101985209175
0.69,-0.15414038696514593
0.691,-0.44687759151852635
0.692,0.3122662627638356
0.693,-0.26133351386967674
0.694,-0.8136599716329173
0.695,-0.7109570843093361
0.696,0.002258065455769044
0.697,-0.6806029955299027
0.698,-0.3465198061301852
0.699,0.9171725829045223
0.7,-0.1793998954398556
0.701,-0.4457119015436939
0.702,-0.033007296459261815
0.703,0.8687726965013712
0.704,1.7640026301099645
0.705,0.6954400787742918
0.706,0.5683512231918568
0.707,-0.08275934666671837
0.708,-0.32494371850684
0.709,0.2471687647242075
0.71,-0.5202331585256392
0.711,-1.6457925120656858
0.712,-0.894926230270311
0.713,0.1796619945594681
0.714,0.0557410346839043
0.715,0.08927786032367013
0.716,-0.6669312178953098
0.717,-0.2676916083726123
0.718,-0.2467048789135602
0.719,0.25176950486001254
0.72,1.0453021970279424
0.721,0.31649585270421093
0.722,-0.8389076367323414
0.723,-0.052225875427775584
0.724,1.6115731888684055
0.725,-0.7925349101598006
0.726,-1.357561847243956
0.727,0.16431458858872858
0.728,0.23259320315615967
0.729,0.5443766751783964
0.73,0.5853713093457086
0.731,-0.8876814584955618
0.732,-1.121808730389167
0.733,-0.34426682522067104
0.734,1.073619708686367
0.735,1.2798222471568352
0.736,-0.8006906081380255
0.737,0.800062013440041
0.738,1.3094758919264422
0.739,1.2854865460854763
0.74,0.3243780986616484
0.741,-1.1410151507528106
0.742,0.14210739611502124
0.743,0.35420093265967767
0.744,0.35757141509646706
0.745,-0.5351407740944585
0.746,-1.438365299582518
0.747,-1.2854854689403044
0.748,0.8736227276666886
0.749,0.9378117193501792
0.75,-1.0557703916713503
0.751,-0.7069601697792767
0.752,-0.33569867685649035
0.753,-0.2163339594917412
0.754,0.36404182545470726
0.755,-0.3382048602992577
0.756,-0.31983997129551794
0.757,-0.3466813568016437
0.758,-0.7927912641476759
0.759,2.3378027835391784
0.76,0.7326628329107612
0.761,-1.38230914068462
0.762,-0.6880144945227923
0.763,0.0798622672187698
0.764,0.614091317491609
0.765,-1.2099375648509665
0.766,0.45045142616275946
0.767,-0.29258401362271447
0.768,-0.03942969097289748
0.769,1.374643694499636
0.77,1.651547199092283
0.771,1.5785737465702885
0.772,-0.6429443335805299
0.773,0.7307045413129396
0.774,0.6698003047531902
0.775,-0.010682003005594964
0.776,-1.6595953155171583
0.777,-2.2251681249379405
0.778,-0.4103772327675134
0.779,-0.38661884068562574
0.78,-0.9331669809460682
0.781,-0.832412334931224
0.782,0.3585197966530946
0.783,0.09848386191187149
0.784,1.7031944026568322
0.785,-0.03676056921668942
0.786,-1.1218455562912075
0.787,1.5525231134448485
0.788,0.6887636039851297
0.789,1.567307820972195
0.79,1.4215704565149
0.791,-0.5410827162230001
0.792,-2.110656432999935
0.793,-1.0417164256610747
0.794,1.0446944981944315
0.795,-0.8427063171651046
0.796,-1.1827848394113565
0.797,0.09968534489881328
0.798,0.6272543341596861
0.799,0.7134256503704692
0.8,-0.34433979270651704
0.801,-0.6213722337574688
0.802,0.7637307340761583
0.803,1.0621849965533778
0.804,0.4126348406570075
0.805,1.023274851357698
0.806,-0.04998900478129398
0.807,-0.6684619209242437
0.808,0.4940791695220401
0.809,-0.6631761249554606
0.81,-0.378424533757734
0.811,-0.43790329390108507
0.812,-1.377253710657211
0.813,-0.39691497109901736
0.814,-0.1781945915415187
0.815,-0.8035801037677233
0.816,-1.6177621330367358
0.817,-0.18138898380255736
0.818,0.980300710566235
0.819,1.7855874132978113
0.82,0.8747981636165628
0.821,-0.824907469489976
0.822,1.2690580900503938
0.823,1.14385513056868
0.824,0.41120161071402134
0.825,0.025986737028266947
0.826,-1.380387856883436
0.827,0.35528621207389743
0.828,0.8335716877893892
0.829,-1.0932271249684922
0.83,-1.0565810102224107
0.831,-1.2119431926200313
0.832,-0.2616879155110786
0.833,1.4833118671008576
0.834,0.27504652383467765
0.835,-0.16378184755348307
0.836,0.20923650141780734
0.837,-0.3193142572894279
0.838,1.562857750378835
0.839,1.7474136997736103
0.84,-0.02708987462584385
0.841,-0.16278169153438432
0.842,-1.3938276146881174
0.843,-0.838744897064836
0.844,0.03569522736606842
0.845,0.5568888065154386
0.846,-0.7688747188966302
0.847,-2.7051271727022836
0.848,-0.7924493280886206
0.849,0.6109503633459425
0.85,1.278577186340721
0.851,-0.24895532258385433
0.852,0.7654537209121642
0.853,1.7863715567173644
0.854,1.1089797524132008
0.855,1.2282784699880698
0.856,-1.0121152855668678
0.857,-0.6572360394658434
0.858,-0.5738962100233401
0.859,0.30752076986327265
0.86,-0.08751951763215357
0.861,-0.8219024036372254
0.862,-0.6181465896648799
0.863,-1.034226152423901
0.864,-0.37228727537498607
0.865,-1.9107167263476788
0.866,0.7253809981602822
0.867,0.13963519761072424
0.868,0.7331797711415846
0.869,3.2002935177223035
0.87,-0.6501929316161823
0.871,-0.9050115484966542
0.872,-1.0685658206472428
0.873,0.8445323021211211
0.874,0.8156174052380767
0.875,0.9520348188188752
0.876,1.639539084839141
0.877,-2.146772482948803
0.878,0.5357469020546
0.879,0.10345099762097681
0.88,-1.3432375168396347
0.881,-1.087660481889518
0.882,-1.7013853000373784
0.883,2.2794559923937356
0.884,0.9999435259806234
0.885,0.4407504841023714
0.886,1.1501397980347328
0.887,-0.5456272506075376
0.888,0.13887127734508775
0.889,-0.5958632835601196
0.89,-0.15904685813407898
0.891,-0.30004230364295553
0.892,-0.07430462089693438
0.893,-0.041231401391259956
0.894,-1.0040429001053737
0.895,-0.1563859374330267
0.896,-0.15888841994586528
0.897,-0.04692515359415497
0.898,-0.7314101627179147
0.899,0.4857639789197378
0.9,-0.3418296640410346
0.901,-1.0545242900744327
0.902,1.38244199211141
0.903,0.46147422807886995
0.904,0.7873394854675484
0.905,-0.17190899946990698
0.906,-0.7934481731803869
0.907,0.9483154331173549
0.908,1.3805390012713894
0.909,1.3608512488288484
0.91,-0.0989092647977313
0.911,-1.7348775143406554
0.912,-1.058275973876631
0.913,0.3998291672261963
0.914,-0.4436742604537328
0.915,0.23608384663410453
0.916,-0.6421921012245643
0.917,-1.3263077556632876
0.918,0.4987493012713845
0.919,0.4665135401563036
0.92,0.4181272510417197
0.921,-0.5685634590400996
0.922,0.8560416652800437
0.923,1.0624755908861039
0.924,0.0988867178874919
0.925,0.7727467066802504
0.926,-0.08744743902201789
0.927,0.03400253294540097
0.928,-0.571006223861718
0.929,-0.923336736756293
0.93,-1.0949137866354581
0.931,-1.0852369157230917
0.932,-0.5322724462699571
0.933,0.0347238907375724
0.934,1.018203439453428
0.935,-0.1962075747038525
0.936,0.11692952087309738
0.937,1.6966701394617496
0.938,1.5513141640777184
0.939,0.9634358311665755
0.94,-0.18871470558082437
0.941,-0.960072589919865
0.942,-0.9041428312680053
0.943,-0.43787510589075435
0.944,0.6450236144776578
0.945,-0.8898524220879427
0.946,-2.0886981148817023
0.947,0.9974421232202298
0.948,0.5239383614285267
0.949,-0.5235157424295402
0.95,-0.35859273508557643
0.951,-0.05737622620000176
0.952,1.2446031151447208
0.953,-0.22528269536673132
0.954,1.3287500131642125
0.955,1.4434609841972477
0.956,-0.5220921216845734
0.957,0.06823434740294769
0.958,-0.1887193130687965
0.959,0.10721789130330606
0.96,-0.4479054299913959
0.961,-0.5787731918217334
0.962,0.15809568173751043
0.963,-0.8775527506593329
0.964,-1.5138275093903446
0.965,-0.5824515669678796
0.966,-0.3566071651067002
0.967,0.01838935688874036
0.968,0.44500583923423787
0.969,0.8487443296892144
0.97,1.5141060620825137
0.971,0.11730209683015486
0.972,-0.2589195084775242
0.973,-0.18948444962014538
0.974,0.12418713117364555
0.975,0.7767443196457987
0.976,-0.5677192398931401
0.977,-0.4753055736857027
0.978,-0.1611219111486051
0.979,0.47278513630474894
0.98,0.8882361902048639
0.981,-0.8504136331924768
0.982,-0.2029566254494613
0.983,-0.06368976324431218
0.984,-0.9538182871152698
0.985,0.2411040977694479
0.986,0.2660155110878141
0.987,0.195188398326473
0.988,0.596583660391709
0.989,0.21392988696457194
0.99,0.25699242589633364
0.991,0.014620403688525047
0.992,-0.33375441296301334
0.993,0.9091307801896948
0.994,0.36593208272919986
0.995,-1.4796141210326792
0.996,-0.3715398685578642
0.997,-0.7466057976734789
0.998,-0.8971234499729933
0.999,1.1276663761043981
1.0,0.46091424610801307
1.001,-0.007987549590065507
1.002,0.30777120941178965
1.003,-0.15667863607340932
1.004,0.48518225564379847
1.005,0.8723552545901498
1.006,-0.6540904773535599
1.007,-1.2087258404145473
1.008,0.2657580684716099
1.009,0.4613230154203541
1.01,-0.12998143184282582
1.011,0.04290145690425956
1.012,-0.23324239285518772
1.013,0.14814869748438037
1.014,0.48871715623239187
1.015,-0.8252628678229135
1.016,-0.028814968398511047
1.017,0.7273928527207933
1.018,-0.16659483269784353
1.019,-0.018428035842669617
1.02,-0.3628254281390028
1.021,-0.2567567689007345
1.022,0.3295068262643054
1.023,0.34509910281316314
1.024,-0.19697569049959224
1.025,-0.18810136888112144
1.026,-0.052342627127502483
1.027,-0.18018023541012662
1.028,-0.26180296891151894
1.029,0.025015348300690875
1.03,0.21702836331114805
1.031,-0.872013224897821
1.032,0.2373706372895017
1.033,0.02950679887149517
1.034,0.08358221941943918
1.035,1.0449709014603907
1.036,-0.4010592018659908
1.037,-0.0441252463699494
1.038,0.028686349787596904
1.039,0.6408594107000992
1.04,0.6436978158853266
1.041,0.20029137897480473
1.042,0.21144178250760878
1.043,-0.1216910085627703
1.044,-0.229480795848193
1.045,-1.015649043206242
1.046,0.18551784201173202
1.047,-0.2366052518666481
1.048,-0.2891876669089119
1.049,0.5832591373575768
1.05,-0.460871851933247
1.051,-0.08718446679519246
1.052,-0.050820690640027144
1.053,0.3618269679070384
1.054,0.3265627743956627
1.055,-0.564548532197334
1.056,0.1384864924048575
1.057,0.3511714516977147
1.058,0.3536915552729101
1.059,0.1970388342874672
1.06,-0.5254101387046157
1.061,-0.6474074850880966
1.062,-0.4226064633050044
1.063,0.13835133672868943
1.064,0.14115101291318616
1.065,0.07379310966257133
1.066,0.13963724170280176
1.067,0.17246071371716598
1.068,0.2952493927567901
1.069,0.04039182833861258
1.07,0.14193742496630335
1.071,-0.07186094295016515
1.072,-0.03491632253436495
1.073,0.14752232216757488
1.074,-0.1250262649958045
1.075,-0.5246396083351537
1.076,-0.37609823502480666
1.077,0.043761187070204405
1.078,-0.3313621870857554
1.079,0.05116078132150054
1.08,0.1837194914229509
1.081,-0.007071295275570544
1.082,0.19458358308725332
1.083,0.35650824463823627
1.084,0.4579907728395381
1.085,0.05429649948514237
1.086,-0.2303166201430145
1.087,-0.4875000313094652
1.088,0.35895851769620235
1.089,0.6129074229767196
1.09,-0.17195528523340475
1.091,-0.0664078019079813
1.092,-0.2815695418554274
1.093,0.16086363317886565
1.094,0.16633771956199442
1.095,-0.45941513231095976
1.096,-0.15981297303372013
1.097,-0.14111876024631775
1.098,0.04786732979141001
1.099,0.12210161815818873
1.1,-0.13735470705317562
1.101,-0.20759123823635925
1.102,-0.00878565939961505
1.103,0.3546483023043587
1.104,0.35761907899103584
1.105,0.12879965902383161
1.106,-0.21272033972932064
1.107,-0.1430708800831639
1.108,0.13029890142906855
1.109,-0.0017998319799345935
1.11,-0.019082484861535146
1.111,0.12971722086346843
1.112,0.042645604476469784
1.113,0.051887020906380775
1.114,-0.11077235868254198
1.115,-0.3564790314723473
1.116,-0.12668233422845948
1.117,0.025947766450904408
1.118,0.10402830404864383
1.119,0.12979964873800437
1.12,-0.09169187729621636
1.121,-0.22374227764870297
1.122,-0.11246651655183126
1.123,0.2080084539411413
1.124,0.35514726110601474
1.125,0.03156577388044467
1.126,-0.03721091745387817
1.127,-0.05410724651647637
1.128,-0.16914202605184347
1.129,-0.0727506778698694
1.13,-0.12853191600853164
1.131,-0.0015095349056932633
1.132,0.0664934560135666
1.133,0.08700417832673907
1.134,0.018547677705537925
1.135,0.07203933995324484
1.136,0.18232933656116235
1.137,-0.053201319958256305
1.138,0.05833902234035325
1.139,0.0557997944846592
1.14,-0.0021888700734432054
1.141,-0.11626437071962337
1.142,-0.21225398462620076
1.143,0.1464863092239621
1.144,0.14392244558050307
1.145,-0.07559955805848124
1.146,-0.10070205869848309
1.147,-0.05559600870863485
1.148,-0.01276607718889472
1.149,-0.047063518100541844
1.15,-0.04222047716804338
1.151,0.0002963440209186874
1.152,0.06773055846087386
1.153,0.12501080397832015
1.154,0.04009699207096411
1.155,-0.008903997143202412
1.156,0.012583510648928615
1.157,0.029481678239191095
1.158,0.05437151206822663
1.159,-0.04092648760410156
1.16,-0.11411982053184173
1.161,-0.07709159189441744
1.162,-0.04925910095492465
1.163,0.012239898795554805
1.164,0.08867342440612211
1.165,0.061215160740704655
1.166,0.014447053123663619
1.167,-0.05713543705600496
1.168,-0.1244174383263946
1.169,-0.04344536607299137
1.17,0.04209887833771757
1.171,0.04079281530898071
1.172,0.0793206553304316
1.173,0.09686584609839888
1.174,0.017377367399018562
1.175,-0.0178211401488131
1.176,-0.02094682982906899
1.177,-0.004680172595693553
1.178,-0.0085755045890945
1.179,-0.05198833262598306
1.18,-0.055113997515952876
1.181,-0.03792732560113818
1.182,0.006691848943964303
1.183,0.04891216133404235
1.184,0.08440556157074759
1.185,0.07925712718630533
1.186,-0.0006237991002047884
1.187,-0.0666278876739195
1.188,-0.09774153039244525
1.189,-0.08481301340935088
1.19,-0.01631551727422521
1.191,0.028088698280927735
1.192,0.06383273996201554
1.193,0.05807874504574434
1.194,0.010654351928524965
1.195,0.003000265179274708
1.196,-0.00397880363631302
1.197,-0.000639398697485357
1.198,-0.004738903853066072
1.199,-0.015490889219701313
1.2,-0.03622892394289077
1.201,-0.03803074584372537
1.202,0.00991945366138599
1.203,0.054474098540233704
1.204,0.08017501220913122
1.205,0.05502943561682273
1.206,0.0012161273220203852
1.207,-0.06586231256312866
1.208,-0.09164183172411741
1.209,-0.054228208963461505
1.21,-0.023558583801715258
1.211,0.016454963460191138
1.212,0.052591578668515375
1.213,0.044643613866810844
1.214,0.02447476549625511
1.215,0.004379489774463376
1.216,-0.006088792047582619
1.217,-0.01253877295270965
1.218,-0.01504962220591643
1.219,-0.010897322182292182
1.22,-0.041350942806267804
1.221,-0.02798719969727114
1.222,0.013374466983501055
1.223,0.0392394874166344
1.224,0.05796358972299379
1.225,0.03860508259073788
1.226,0.0032738015526957744
1.227,-0.04897884350328523
1.228,-0.05546942239712063
1.229,-0.03548746100676675
1.23,-0.020344606492380908
1.231,0.003537158657690217
1.232,0.04167310459621883
1.233,0.05660154769143878
1.234,0.012323080115399124
1.235,0.01434243087645172
1.236,0.014399467254882165
1.237,-0.015822290986481066
1.238,-0.004701336634563159
1.239,-0.006705743102910549
1.24,-0.029720545833573496
1.241,-0.02066980223930881
1.242,-0.0013390827462928384
1.243,0.023574131923991118
1.244,0.03846880388004318
1.245,0.025149278198919402
1.246,0.0009494075155860732
1.247,-0.03768877759796317
1.248,-0.05062551223202183
1.249,-0.054442164639354744
1.25,-0.01238946158079533
1.251,0.02767527700128318
1.252,0.01034092059298906
1.253,0.03675174248801093
1.254,0.02743754436562825
1.255,-0.004568705830696997
1.256,0.012137645179394108
1.257,0.0016882107519753334
1.258,-0.019681988103086006
1.259,-0.014187646343650287
1.26,-0.017181777923740413
1.261,-0.009296459473612908
1.262,0.00791258731278828
1.263,0.01974399189097022
1.264,0.03613882078386531
1.265,0.01617979002060223
1.266,-0.00017617961999390327
1.267,-0.03218148662604171
1.268,-0.04890207721872783
1.269,-0.020156128931568998
1.27,-0.003682136388150222
1.271,0.0184992206689875
1.272,0.011190354750475761
1.273,0.022672133261808385
1.274,0.02401771809408578
1.275,0.00792018746428458
1.276,0.018053246606604317
1.277,0.00012810191415935437
1.278,-0.010803215327063036
1.279,-0.016482583629633604
1.28,-0.017365081459552324
1.281,-0.011731202371623005
1.282,0.010166598448873746
1.283,0.028860398422788085
1.284,0.021122805964926845
1.285,0.006246575083830957
1.286,-0.01416810785935431
1.287,-0.017194157006375433
1.288,-0.039612991244149055
1.289,-0.052359132980416494
1.29,-0.004901773664511999
1.291,0.028301632785273426
1.292,0.02025694478362209
1.293,0.02448633216265651
1.294,0.015126614627245672
1.295,0.001953545853143888
1.296,0.009066826363906742
1.297,-0.008862282311509484
1.298,-0.006473637036412844
1.299,-0.009834121820174267
1.3,-0.021476635394227124
1.301,0.0023511653714098028
1.302,0.0001079204569641402
1.303,0.010107484805255751
1.304,0.02577654253653032
1.305,0.009950917359996321
1.306,0.00024801018086485944
1.307,-0.012859797624190171
1.308,-0.015362854423237066
1.309,-0.01538685918215616
1.31,-0.011954860052369363
1.311,0.013420081618076073
1.312,0.025885972145421092
1.313,0.02115382780637378
1.314,0.010268097787554576
1.315,-0.007794187817981232
1.316,-0.010814238851395925
1.317,-0.007259942902583877
1.318,-0.01394043337702481
1.319,-0.013589154941301987
1.32,-0.010524621984960332
1.321,-0.001993741948364848
1.322,0.0030777767303355177
1.323,0.01711757925308006
1.324,0.01975710404657354
1.325,-0.007010886163871067
1.326,-0.005421367487574639
1.327,-0.013553153226243123
1.328,-0.028306679490552447
1.329,-0.012656025121021467
1.33,0.00952821520934738
1.331,0.012990404167759593
1.332,0.010754672119176663
1.333,0.025579492222649935
1.334,0.014071869953823101
1.335,0.000960667603463152
1.336,-0.0021942655647628232
1.337,-0.006458835987859967
1.338,-0.007488116716793334
1.339,-0.007666634303890899
1.34,-0.004251964211526045
1.341,-0.0045081627726419726
1.342,0.011392556257196311
1.343,0.023436408569102656
1.344,0.02881625618229898
1.345,-0.002904296876654797
1.346,-0.018005531777877802
1.347,0.0023169828612019426
1.348,-0.021970288474476986
1.349,-0.014073101306774171
1.35,-0.01285872272841435
1.351,-0.014794131764434462
1.352,0.017952406635663064
1.353,0.019430846245735267
1.354,0.006896747333482141
1.355,-0.01796165857806599
1.356,-0.0004768074350549726
1.357,0.004734778947814919
1.358,-0.018201781669697697
1.359,-0.0028038552690841734
1.36,-0.006304273282184098
1.361,0.006196934000497563
1.362,0.005084735044985212
1.363,0.003778138411895294
1.364,0.024019654817749383
1.365,0.011040157006729901
1.366,0.0014414513722379165
1.367,-0.01250018483634174
1.368,-0.014884528447539184
1.369,-0.017454039007595772
1.37,-0.006801344538717509
1.371,0.017696999058436393
1.372,-0.007747364086341942
1.373,-0.010050629510577076
1.374,0.021946537181091238
1.375,0.0002603925386089941
1.376,-0.005751542939111684
1.377,0.005661504197352556
1.378,-0.013435456687186388
1.379,0.00871113540832462
1.38,-0.0032456038405095956
1.381,-0.00867018437372835
1.382,0.01978629777161529
1.383,0.002100264385053236
1.384,0.01114439385028352
1.385,0.010935889072248694
1.386,0.007457240300089053
1.387,0.012151464186687973
1.388,-0.014873960816733152
1.389,-0.014055503548539034
1.39,-0.006648041163306475
1.391,-0.0058819246653210215
1.392,0.017438631913614756
1.393,0.007154824683128889
1.394,-0.003921558849090023
1.395,0.005284382581825924
1.396,-0.017564530549820795
1.397,-0.013196161439573808
1.398,0.0019767273676832664
1.399,-0.01528008613799393
1.4,-0.020186805758410926
1.401,0.0009014007828414692
1.402,0.011797272822334757
1.403,0.01125288323520321
1.404,0.01637044350824502
1.405,-0.005275878713596563
1.406,-0.013495742159813664
1.407,0.007099500493076813
1.408,-0.008807961975456215
1.409,-0.013768843238901478
1.41,0.011207370266785694
1.411,-0.00036339585358708673
1.412,0.009187883239014845
1.413,0.02034030830640885
1.414,-0.0002530582473182117
1.415,0.007496909650087962
1.416,0.001800103894684425
1.417,-0.0035810973843063217
1.418,0.00867356775262148
1.419,-0.0034269870276135202
1.42,-0.0031083813925188155
1.421,0.009273064868755041
1.422,-0.00574542748773387
1.423,-3.975286935862122e-05
1.424,-0.009686877589980197
1.425,-0.011748186479778239
1.426,0.014741577681398398
1.427,-0.010728708248338045
1.428,-0.013322737987450917
1.429,-0.005363793589295606
1.43,-0.004928274784763937
1.431,0.008191036978933005
1.432,0.0069349265305725695
1.433,-0.0038688862356391347
1.434,-0.00032328123308278975
1.435,0.0022316745672401857
1.436,-0.004054822701732444
1.437,0.009012882815617766
1.438,-0.002119750496979095
1.439,-0.0031860649394010203
1.44,4.868496443018709e-05
1.441,0.006614911645854486
1.442,0.002176092233233563
1.443,-0.010856143590419481
1.444,0.007051759280233494
1.445,-0.005644649069219515
1.446,-0.0075056092197833026
1.447,0.0007746397130357549
1.448,0.005828586624845405
1.449,-0.00621882865536166
1.45,-0.0018120940080465443
1.451,0.014092763203698951
1.452,0.0011540891703891976
1.453,0.026542392689037596
1.454,0.00528690030677323
1.455,-0.01742049432938919
1.456,0.003060592183270233
1.457,-0.00024383445372947322
1.458,0.0033069010568180218
1.459,0.0012414427116909572
1.46,-0.009289490123750676
1.461,-0.012218069300836744
1.462,-0.0029001752974109666
1.463,-0.0031338875574082954
1.464,-0.003471085552088562
1.465,0.009352596323361193
1.466,0.0161003948235478
1.467,0.0021226448182789133
1.468,-0.014950021689028458
1.469,0.0009463557026192283
1.47,0.010944241021190222
1.471,-0.006900168320657172
1.472,0.0011281133861845913
1.473,0.0017343435334134629
1.474,-0.005605265187437424
1.475,0.006283979270192251
1.476,-0.003673425961956687
1.477,0.0001598443021382695
1.478,-0.015219666753764752
1.479,-0.00898422697838865
1.48,0.0025865256547913033
1.481,-0.004610456607017887
1.482,0.018129204330383737
1.483,-0.0018854433825029812
1.484,0.00629391579375522
1.485,0.008855867670747069
1.486,-0.011787481062996874
1.487,-0.02405025957478372
1.488,-0.015075827679452194
1.489,0.0035905786536705
1.49,-0.0036959088239964955
1.491,0.01915105096348965
1.492,-0.0014809496480312381
1.493,-0.0026905654935251064
1.494,0.01689413900454846
1.495,0.013477375059654786
1.496,0.01621658397614404
1.497,0.0034272696807607574
1.498,0.0024452137667760336
1.499,-0.001531897389941409
1.5,0.0012713045143244433
1.501,-0.008724516412057744
1.502,-0.010203797929867297
1.503,0.0007437128707741418
1.504,-0.00100830602889691
1.505,-0.004763797673410628
1.506,0.005376365416682317
1.507,0.004847529111767568
1.508,-0.002821560822981972
1.509,0.009629410784263293
1.51,-0.01219644450947047
1.511,-0.003535040099982876
1.512,-0.005171453098965975
1.513,-0.019996590317916715
1.514,-0.001019947578571311
1.515,-0.006026159616359795
1.516,0.011708393263063215
1.517,-0.0006487291603783528
1.518,-0.014207176109072798
1.519,0.012310150596320861
1.52,0.010466381084975447
1.521,0.0034912905230040587
1.522,0.0004667479078899399
1.523,-0.0069007987071567556
1.524,0.0008323081511889287
1.525,0.014161876491437674
1.526,0.01933329921070893
1.527,0.016551469535117838
1.528,-0.007833393111729765
1.529,-0.007751406217577292
1.53,1.654311776750966e-05
1.531,-0.009468796179041408
1.532,0.0023992813378027056
1.533,0.006541021098474359
1.534,-0.009327037045738073
1.535,-0.011925107073614365
1.536,-0.002498712267055568
1.537,-0.0036563051118048604
1.538,-0.018260159969754955
1.539,-0.027414867156754848
1.54,-0.003332724831138928
1.541,0.019927818992406778
1.542,0.018917678061358526
1.543,-0.0004913373621697752
1.544,0.0001311423290686559
1.545,0.007341419872328437
1.546,-0.00551101864516988
1.547,0.0017435255676058622
1.548,0.009954060347881375
1.549,0.01171331761877399
1.55,0.0032298068362301077
1.551,0.00136364371718674
1.552,-0.004452145599712998
1.553,-0.00546934983059867
1.554,-0.0030797399097412343
1.555,0.002644653003660126
1.556,0.004133823216586905
1.557,-0.010282274775754096
1.558,0.010211653912815057
1.559,-0.0035210765191006988
1.56,-0.0019268622927654622
1.561,-0.005509510730601546
1.562,-0.021799596953280313
1.563,0.013533867820223233
1.564,0.0118619840579805
1.565,0.0014966361830675485
1.566,0.003145274004891916
1.567,0.007394250046278247
1.568,-0.014480264271938863
1.569,-0.001648035425969218
1.57,0.011514552290979585
1.571,-0.006341308213645082
1.572,0.007226560999202904
1.573,-0.010033097859987725
1.574,0.0053625557505869136
1.575,-0.0023325552391311945
1.576,-0.01769117784987769
1.577,0.007432890120150457
1.578,-0.007139888957688584
1.579,-0.011175767956548087
1.58,0.005605853773097745
1.581,0.01135770810935578
1.582,-0.0029010932642168667
1.583,0.003788020867538517
1.584,0.012738062105401063
1.585,0.010236558591286435
1.586,0.0074617645578369
1.587,-0.0019514814117488769
1.588,-0.004015321581860078
1.589,0.004327529642563769
1.59,-0.004119840937261515
1.591,-0.023729239096805452
1.592,0.01059755371620961
1.593,0.010653824774798289
1.594,-0.02234876733890671
1.595,-0.014367347924534321
1.596,0.004389068677379643
1.597,0.014661828015888473
1.598,-0.0004599174851978669
1.599,-0.01143283721902148
1.6,-0.00013588238163515787
1.601,0.012594281134534202
1.602,-0.002030929214942745
1.603,-0.005771104128969368
1.604,0.0005060532666402878
1.605,-0.007363988485235167
1.606,0.003480679369176938
1.607,0.01620917878274133
1.608,0.00399293741834188
1.609,-0.0009379437894303847
1.61,0.0003641913042986692
1.611,-0.012236583078034232
1.612,0.010869340107884387
1.613,-0.0020162758324689957
1.614,-0.006252746407076386
1.615,0.024855221299338884
1.616,-0.00505961169756644
1.617,-0.014881647535834586
1.618,-0.011186770707356299
1.619,0.0067909876316981305
1.62,-0.0035091588797152087
1.621,-0.01590285754570309
1.622,0.007639135711233001
1.623,-0.005341591507396785
1.624,0.01910487997481848
1.625,0.011523332050323822
1.626,-0.005344749339822092
1.627,0.010986570350017719
1.628,-0.00014464782953062288
1.629,0.007697735871205692
1.63,0.007071126182685108
1.631,-0.007993383780250943
1.632,-0.005405275260950704
1.633,0.0060530989940241345
1.634,-0.008857751815299911
1.635,-0.014117296972516829
1.636,-0.018476160238478465
1.637,-0.00620478455861999
1.638,0.013832495142064237
1.639,-0.01837700963436811
1.64,-0.002880192526129915
1.641,0.00910734137512915
1.642,1.8915467057248662e-06
1.643,0.002001189208001846
1.644,-0.007178243907666787
1.645,0.001698765242414021
1.646,0.0007121217163797868
1.647,0.005671593611839535
1.648,0.014174015246003653
1.649,0.023521872312401264
1.65,0.010472235702515233
1.651,0.0027069442169533405
1.652,0.004782970095143521
1.653,-0.008800553336330768
1.654,-0.0008057331904761844
1.655,-0.014264474153672782
1.656,-0.005872716790219799
1.657,0.001978172234984897
1.658,-0.014989041568910993
1.659,0.00407660068148584
1.66,0.011912873545937612
1.661,-0.0044414389803635055
1.662,-0.01954475793730999
1.663,-0.005591640291715564
1.664,0.015649500898108622
1.665,0.0019040475512810404
1.666,-0.00914441020261694
1.667,-0.0022736289998743376
1.668,0.008344619888749941
1.669,0.011453346778863104
1.67,-0.0011736080398152633
1.671,0.0040607191782221
1.672,-0.005851677427490818
1.673,-0.007286435534926432
1.674,0.006557936501135975
1.675,-0.008581405546494541
1.676,5.2903556371956324e-05
1.677,0.008954128975416845
1.678,0.0025604212410965757
1.679,-0.00804483554361924
1.68,0.0022773319811185593
1.681,-0.0021743820984858175
1.682,-0.006529046175454476
1.683,0.002812398434672218
1.684,-0.007076244588736562
1.685,0.011731371200114553
1.686,-0.0007166028846471862
1.687,0.0021992442486542104
1.688,0.006740699442423334
1.689,0.0009600755727365452
1.69,0.010830820049832835
1.691,-0.00022274485487302792
1.692,0.008752990092789672
1.693,-0.01588912292271923
1.694,-0.008061874058546862
1.695,0.010005285350512143
1.696,-0.022264433899381198
1.697,-0.01526962404747767
1.698,-0.002811422899558744
1.699,-0.00281664015237122
1.7,0.00011773345297153774
1.701,0.0028016932901462174
1.702,0.006484976476076861
1.703,0.010925321206590757
1.704,0.006576502738558954
1.705,-0.0023774842253584294
1.706,0.009486568593195837
1.707,0.019229926620320224
1.708,0.003452791158162207
1.709,-0.006263553943163262
1.71,0.01818977669797442
1.711,0.00198033537085598
1.712,-0.0202249617317314
1.713,0.0031603349811861756
1.714,-0.014110723479992125
1.715,-0.012921638745544924
1.716,-0.008088562506575142
1.717,-0.007820136973210799
1.718,0.0006107839017763791
1.719,-0.00927706647309818
1.72,0.003640482773025899
1.721,-0.004891268460992752
1.722,0.009840336358511774
1.723,0.005410555279151629
1.724,-0.00429999869601737
1.725,0.010128273132094913
1.726,0.0003853337351237146
1.727,0.00862489606037596
1.728,0.012003371251974095
1.729,0.023762775794048698
1.73,0.007529826148230003
1.731,0.0016269950225203135
1.732,0.0010246306439603042
1.733,-0.0074219287427203275
1.734,-0.0031264602665469028
1.735,-0.027075733582839774
1.736,-0.024143076070068478
1.737,-0.018705752943809814
1.738,0.0015311200078431742
1.739,0.013625008152383579
1.74,-0.003338325843564317
1.741,-0.0032592542459369397
1.742,0.002851456114398564
1.743,0.01015500603091491
1.744,-0.004388331029960167
1.745,-0.000612831259411767
1.746,0.01647442404174516
1.747,0.0029575325463170295
1.748,0.013577724523919942
1.749,0.012559076785740543
1.75,-0.012949894387211685
1.751,0.007110960290448165
1.752,-0.0025544604254754064
1.753,-0.029582570765405398
1.754,-0.0053934538953775936
1.755,-0.0036420098244616815
1.756,-0.01557282149953932
1.757,-0.001469202633931867
1.758,0.006720809736552918
1.759,0.011124152367747433
1.76,0.010681828104414414
1.761,0.010537459142574042
1.762,-0.003392183923013396
1.763,-0.010837912790771103
1.764,-0.005702487860124626
1.765,-0.0030438495430813676
1.766,0.021316146946401673
1.767,0.006425799957562554
1.768,0.008811583026787499
1.769,0.018316671633167157
1.77,0.012815683320495808
1.771,0.02460231215202545
1.772,-0.002691710313997063
1.773,-0.0063692940775990315
1.774,-0.016929383552849057
1.775,-0.030878307574446685
1.776,-0.016010339128050208
1.777,-0.012250555286530393
1.778,-0.004567283624156724
1.779,-0.009457021284086166
1.78,-0.007947799734298197
1.781,3.540944943222378e-05
1.782,-0.008141960245918772
1.783,0.00855905207404654
1.784,0.007816596727598024
1.785,-0.012295421586047428
1.786,0.0069240678233124285
1.787,0.0004433981099709381
1.788,0.02028433510556284
1.789,0.028808500929571684
1.79,0.00046491924055770895
1.791,0.012825793971914738
1.792,0.0033997086723363684
1.793,0.0015488411092526334
1.794,-0.011891124525355705
1.795,-0.021811332285889808
1.796,-0.01945363188755652
1.797,-0.013106758071965657
1.798,0.005611949916683092
1.799,0.006598754983218036
1.8,0.020494660885781252
1.801,0.007314167839574286
1.802,-0.005852688796421258
1.803,-0.010292609169156784
1.804,-0.016145735902847756
1.805,-0.011314479494072775
1.806,0.010325624973749722
1.807,0.015214517238451235
1.808,0.0022333174533293114
1.809,0.02627202074308745
1.81,0.01693987048949902
1.811,0.012779151177648945
1.812,0.022385385843003168
1.813,-0.0010143663076584496
1.814,-0.018057658641064078
1.815,-0.031206501682914584
1.816,-0.038527903206091396
1.817,-0.01835362840940422
1.818,-0.00363559274605158
1.819,-0.005872743834324454
1.82,0.005147476189399388
1.821,0.00533052076423489
1.822,0.00018387148934881532
1.823,-0.00732723889727201
1.824,0.0026988128236420184
1.825,0.005211367130005701
1.826,-0.0026145190839949126
1.827,0.023749450319761934
1.828,0.018651416494667554
1.829,0.018517867016458942
1.83,0.030478532734984663
1.831,0.014616860535464534
1.832,0.015478953835456177
1.833,-0.009718366440450472
1.834,-0.026886113757382073
1.835,-0.025072059713973922
1.836,-0.0351420164358844
1.837,-0.012755928884643757
1.838,-0.0036690361294267008
1.839,0.005355813592255755
1.84,0.00423662465926569
1.841,-0.011779917468414355
1.842,-0.009323597178289667
1.843,-0.0003719404633427967
1.844,-0.005427053574552668
1.845,-0.008132112098477438
1.846,0.015742704521051212
1.847,0.004503498417810545
1.848,0.026432317869622208
1.849,0.026685870263729195
1.85,0.016116039936208117
1.851,0.033820903170777336
1.852,-0.007827498732669805
1.853,-0.004703214459033063
1.854,-0.018573605857971725
1.855,-0.04173100037637377
1.856,-0.018201056338100003
1.857,-0.017929854607852666
1.858,-0.0015017220646822036
1.859,0.015072297811696566
1.86,0.0050633353771793715
1.861,0.017556423070396298
1.862,3.909770635783863e-05
1.863,-0.02032060342429228
1.864,0.0015428479269327501
1.865,-0.014087608811039142
1.866,0.012764785444827773
1.867,0.02721374621501297
1.868,0.008025699263704066
1.869,0.022271608477562408
1.87,0.01666198644522209
1.871,0.017685880853639393
1.872,0.0056354544933382815
1.873,-0.009304296985117536
1.874,-0.016715841244900574
1.875,-0.03204903882597173
1.876,-0.03799381108968913
1.877,-0.025037340003668022
1.878,-0.010926432786213528
1.879,0.003026538802992671
1.88,0.02991860444484785
1.881,0.019868790320701865
1.882,-0.012810287183270553
1.883,-0.019980045209034424
1.884,-0.00676104110368784
1.885,-0.0022357217550139693
1.886,0.0017824658279703594
1.887,0.01821239617883868
1.888,0.02106274700289804
1.889,0.027883738333362967
1.89,0.03858989277461166
1.891,0.024859502524385325
1.892,0.005709174937876893
1.893,-0.016786609991320967
1.894,-0.03992597146869875
1.895,-0.054680382389673085
1.896,-0.04767396304401117
1.897,-0.005767530867659421
1.898,0.009019519460331547
1.899,0.019512362209984792
1.9,0.028794132609974495
1.901,0.007192900962252423
1.902,0.004967271198533959
1.903,-0.011918118506190642
1.904,-0.014629763471798916
1.905,3.384469313380718e-05
1.906,-0.005817331734495397
1.907,0.006310399858571955
1.908,0.017651674173703627
1.909,0.03327975810397992
1.91,0.05784999632909439
1.911,0.05168850379525779
1.912,0.023624073274292043
1.913,-0.014091899028119872
1.914,-0.06018780459754764
1.915,-0.07041578388128514
1.916,-0.05772389689095594
1.917,-0.034700011940342244
1.918,0.011163106039689214
1.919,0.022885411843638293
1.92,0.014934566314805976
1.921,0.017180131989852535
1.922,-0.01588595907537792
1.923,-0.021931159627043298
1.924,0.006023452136316098
1.925,-0.017576707876005147
1.926,-0.012708962572187035
1.927,0.015486127516374586
1.928,0.04317411406265126
1.929,0.05648024177939925
1.93,0.0331232504257765
1.931,0.04513495675004217
1.932,0.013088488164823558
1.933,-0.0177309249304053
1.934,-0.0333223747003602
1.935,-0.08869377647022196
1.936,-0.06897042261083332
1.937,-0.020455910449448462
1.938,0.018471686993970685
1.939,0.04701702696537767
1.94,0.035560881091935156
1.941,0.015765447948566973
1.942,-0.017258616063353573
1.943,-0.02866078856140499
1.944,-0.023168820177461025
1.945,-0.010517236901297269
1.946,0.010640169903670964
1.947,0.02022552308894327
1.948,0.043833328634595305
1.949,0.038195328870340314
1.95,0.03869743823155299
1.951,0.055654919091311275
1.952,0.022358715485866737
1.953,-0.036272028306841654
1.954,-0.06773736793592187
1.955,-0.09157881419819647
1.956,-0.09564989188257648
1.957,-0.012443464041894966
1.958,0.03830025292629091
1.959,0.04941551395111167
1.96,0.0544709810794863
1.961,0.015334535924319836
1.962,-0.012874075917427098
1.963,-0.03440391548524945
1.964,-0.027360858092318145
1.965,-0.009723953375613166
1.966,0.005124497069745097
1.967,0.024127436419349453
1.968,0.02780484807243412
1.969,0.0625575220424688
1.97,0.06378338778237298
1.971,0.03687044994071256
1.972,0.03648760776253043
1.973,-0.01826829429805049
1.974,-0.08838293127399406
1.975,-0.1211636233040052
1.976,-0.09152702719278724
1.977,-0.030450135597950487
1.978,0.023673896773181085
1.979,0.0755902574403037
1.98,0.05636295615021379
1.981,0.004350335696819915
1.982,-0.03294881838280075
1.983,-0.04469626904425941
1.984,-0.029744202797790966
1.985,-0.009837055294363031
1.986,0.02039693959259979
1.987,0.029654726775293114
1.988,0.0304974624445363
1.989,0.057497331271203336
1.99,0.08319797872929215
1.991,0.08761487790514634
1.992,0.05920520311922707
1.993,-0.016012529170551355
1.994,-0.09920161664500587
1.995,-0.13494943809075904
1.996,-0.122783263188356
1.997,-0.052601354577448405
1.998,0.04760640951878825
1.999,0.09075868268688514
2.0,0.08127874121877278
2.001,0.0224616588073793
2.002,-0.042081082564076805
2.003,-0.06898766521833204
2.004,-0.06420856615641454
2.005,-0.009495799811897618
2.006,0.021764117134940662
2.007,0.021751330790228153
2.008,0.0496279303791618
2.009,0.07099471200280856
2.01,0.0758955986766465
2.011,0.09605635161158771
2.012,0.05777812740619614
2.013,-0.03195391770570913
2.014,-0.11729467281293732
2.015,-0.18475121661976698
2.016,-0.1531688438508698
2.017,-0.04976491431612498
2.018,0.05829737283386995
2.019,0.10746335201293761
2.02,0.0997049205388559
2.021,0.03555612885480999
2.022,-0.04747179056241413
2.023,-0.08199107713507313
2.024,-0.08484639728254866
2.025,-0.0013706454950553754
2.026,0.04713113421235986
2.027,0.05485111439736083
2.028,0.052399122544113316
2.029,0.03871749014562975
2.03,0.08807428301547932
2.031,0.10071983243738511
2.032,0.09839749076533677
2.033,0.0023970459805486913
2.034,-0.15179044074726142
2.035,-0.16369284858186073
2.036,-0.11542272979718167
2.037,-0.058891071461029225
2.038,0.08513064764069861
2.039,0.07334530005445686
2.04,0.05822845509588427
2.041,0.0932634415824746
2.042,-0.04750774048417133
2.043,-0.055237060658776954
2.044,-0.10780080597927569
2.045,-0.03300093284176661
2.046,0.009653208400636465
2.047,-0.004120041689787093
2.048,0.05503873066768078
2.049,-0.032808868502662535
2.05,0.07751985456752973
2.051,0.10339570938279122
2.052,0.14743812061100547
2.053,-0.028603801987948818
2.054,-0.18377567555799346
2.055,-0.10813842306294476
2.056,-0.08059397153931144
2.057,0.0712968201278841
2.058,0.004293589233485218
2.059,0.015493043157815453
2.06,0.10146640521678812
2.061,0.06991620275252242
2.062,-0.0293245827902264
2.063,-0.08888265025094272
2.064,-0.19755648687842153
2.065,-0.13772278496514478
2.066,0.1221533765732676
2.067,0.12831175962926405
2.068,0.018613311261811302
2.069,0.034650260288786844
2.07,0.1260635338039835
2.071,0.17394502426937433
2.072,0.2202927792710141
2.073,-0.008185670819223057
2.074,-0.15035565721955532
2.075,-0.11524507461804274
2.076,-0.19418928425124238
2.077,-0.17503769728459181
2.078,0.11325744951367325
2.079,0.15468405604443705
2.08,0.08019896155920031
2.081,0.0011369760365961892
2.082,4.071923776866049e-05
2.083,0.013738606554358532
2.084,-0.38519488071466984
2.085,-0.0652999013317245
2.086,-0.10510949144829113
2.087,-0.2644760395472141
2.088,0.09569910000128876
2.089,0.13796933079982848
2.09,0.06384482711332953
2.091,0.34323524896568547
2.092,0.6818699572425659
2.093,-0.0636282686656883
2.094,-0.2948564065815196
2.095,-0.35979056665364273
2.096,-0.20709431899094227
2.097,-0.12656356564051569
2.098,-0.3289707697572738
2.099,0.2903815463782923
2.1,0.20859664343912243
2.101,0.14405630305512085
2.102,-0.4676118242598874
2.103,-0.13723332462526563
2.104,0.5856294222017546
2.105,0.03542399886465736
2.106,0.607684192267886
2.107,0.5510088867694989
2.108,0.19187416783244138
2.109,-0.34855312746497524
2.11,-0.4567256020294944
2.111,0.2792562445057508
2.112,-0.00703208320779819
2.113,-0.30904530405912173
2.114,-0.6710536645566173
2.115,-0.5471694724603433
2.116,-0.00948818712753341
2.117,-0.02658195070455758
2.118,-0.3017404184270728
2.119,0.29357690708257983
2.12,0.14400956086000866
2.121,-0.19531876283493121
2.122,0.4087180976917433
2.123,0.019011334056834667
2.124,0.20750180137263782
2.125,0.500639283232897
2.126,0.4198457560448918
2.127,0.005917987044178653
2.128,-0.27893109535780786
2.129,-0.13785158368494144
2.13,0.2375230295758783
2.131,-0.09898166323543003
2.132,-0.3505009963617515
2.133,0.3201812883414032
2.134,-0.6859035434028824
2.135,-0.32484915761904665
2.136,0.35352028337639274
2.137,0.05050333165135315
2.138,-0.49090285530085626
2.139,-0.4091091107246867
2.14,0.4548338988628013
2.141,0.6348291358182929
2.142,1.3411854759895285
2.143,-0.06622571907211862
2.144,-0.8135379427267829
2.145,0.09818387896865066
2.146,0.1203657225672741
2.147,0.12922539391986415
2.148,-0.06803903715574498
2.149,-0.6003950856790259
2.15,-0.6054393937631882
2.151,-0.21530075262229853
2.152,-0.4857971025073651
2.153,0.02610794116439666
2.154,-0.0919379661779994
2.155,-0.04867652018533837
2.156,1.2055979260171115
2.157,1.210424242405034
2.158,0.08329311201507011
2.159,-0.8049365915221092
2.16,-0.1604072835824568
2.161,0.1438698143013922
2.162,-0.2365729191284061
2.163,-0.4694482642662526
2.164,-0.7910934943111539
2.165,-0.13286391981684087
2.166,-0.06981135379956449
2.167,0.5483746607014439
2.168,0.23058830232796107
2.169,-0.4727123459085179
2.17,1.273573515360535
2.171,0.3192064161540053
2.172,0.12958201454960092
2.173,0.476171887933607
2.174,-0.15400755834112975
2.175,0.15299205658679815
2.176,-0.6829556434590995
2.177,0.8138770916148718
2.178,0.6379931907984973
2.179,-1.7664023361247105
2.18,-0.7125537834375689
2.181,0.8759106201101119
2.182,0.0923382231415858
2.183,-1.057343474066915
2.184,-1.3160389880469006
2.185,-0.26519483097598495
2.186,1.0421901908896918
2.187,0.9841904537487713
2.188,-0.185903544398037
2.189,-1.118692531948295
2.19,1.2070491658499674
2.191,1.3693936994429123
2.192,-0.07441561043667669
2.193,0.5439236618958636
2.194,-0.1976715832528526
2.195,0.36276300899434094
2.196,0.08103365315211475
2.197,-1.9482075808200834
2.198,-0.7521205305577071
2.199,0.2546107295587087
2.2,-1.0694779747292045
2.201,0.4981235789354287
2.202,0.028875891318714375
2.203,-1.5473983384823515
2.204,0.8684107964686227
2.205,0.5018454852489704
2.206,0.8742252392318984
2.207,1.498612120286778
2.208,0.5339121784739282
2.209,0.748283508456396
2.21,-0.8608006334301576
2.211,0.2193387555099497
2.212,0.18607340285253443
2.213,-1.620379316031462
2.214,-0.8710944148966767
2.215,-1.0593333525443112
2.216,0.6969639574573774
2.217,0.462955056662743
2.218,-0.05838590596785685
2.219,-0.08844107890138747
2.22,-1.4694999371067365
2.221,0.4280444314276748
2.222,1.3068909782493654
2.223,0.7383182337019771
2.224,0.7519153666851203
2.225,1.0786227086754994
2.226,-0.503870384965956
2.227,0.11687950581199547
2.228,-0.8567241970914575
2.229,-2.61440010231396
2.23,0.45287390270473993
2.231,0.8147459017347085
2.232,0.6721272185485752
2.233,-1.712599759328106
2.234,0.20260984239324142
2.235,2.238099278504974
2.236,-0.7340998771466387
2.237,1.3932048014104481
2.238,0.11035951179481825
2.239,-1.7958268308596361
2.24,0.9762793691660647
2.241,1.4662635554544627
2.242,0.28242376758602666
2.243,0.5876184798706936
2.244,-2.0875783636914824
2.245,-2.3058453832882826
2.246,0.5728977809449723
2.247,-0.6415735132682299
2.248,-1.2366993872780672
2.249,-0.9700604202285726
2.25,0.4770575779506956
2.251,0.5107079964083692
2.252,0.8080262144632753
2.253,-0.15561389234192033
2.254,-0.20656280615494269
2.255,1.882838610389106
2.256,0.4550360246656924
2.257,2.3748806609173383
2.258,-0.1848351403598047
2.259,-2.6650551330346515
2.26,0.8401818592972413
2.261,0.17860519941032002
2.262,0.3177354206139298
2.263,0.5896107431024395
2.264,-1.7007944096928655
2.265,-0.9725354481472086
2.266,0.2428104755514638
2.267,0.6306616342246564
2.268,-0.626707461499974
2.269,-2.555325535934077
2.27,-0.2088126710060652
2.271,0.6274613879363491
2.272,2.1304291191658953
2.273,1.136672472379857
2.274,-0.44882731191338765
2.275,0.8299628575739215
2.276,-0.9177832667867512
2.277,1.8774549748180103
2.278,0.9598195566054348
2.279,-1.364313642894857
2.28,0.5804384704975243
2.281,-0.9686392734147212
2.282,-1.2022855653618953
2.283,-0.6462545251287066
2.284,-0.47557403295171247
2.285,-0.36157762252528236
2.286,1.4538117890392115
2.287,1.628062873025208
2.288,-1.1627104576404106
2.289,0.8927803577459512
2.29,1.2582731416913726
2.291,1.6237411286088606
2.292,1.8544055981525884
2.293,-1.4936715041230024
2.294,-0.6004236814297546
2.295,-1.6302280370219404
2.296,-1.653973678533304
2.297,-0.9201305576643947
2.298,-2.8392358215561155
2.299,-2.206163034078316
2.3,-1.2160089241124776
2.301,1.794529343132349
2.302,0.21756270456620364
2.303,-1.5004095740457115
2.304,1.4095545316380282
2.305,0.07901322352999038
2.306,1.2712613205200738
2.307,2.2185825199737996
2.308,0.09138142824780099
2.309,1.289539532060623
2.31,0.03644919090769577
2.311,-0.3576243066472905
2.312,2.4513568259400658
2.313,-0.29227513287203927
2.314,-2.046740616145783
2.315,1.0382818041839288
2.316,0.08227697598039246
2.317,0.9692823631387373
2.318,2.252684530549459
2.319,-0.9764204326016803
2.32,-0.5229585274687023
2.321,1.7654558063493755
2.322,2.824410258653791
2.323,-1.2606441155617827
2.324,-2.6506788443308587
2.325,-0.17950373718864482
2.326,-1.3379520446862003
2.327,-0.048829709059034415
2.328,-0.3440676155157757
2.329,-2.6173046490539305
2.33,-3.3106088857911695
2.331,0.2344710537440518
2.332,0.5539959542683333
2.333,-2.8822113184223443
2.334,-0.44646296621524384
2.335,1.4705441891137319
2.336,1.6448909882046916
2.337,2.833030295324143
2.338,2.348495704050242
2.339,-0.9429564971836674
2.34,-0.1383044153173017
2.341,0.40838873859111335
2.342,0.4949619526840425
2.343,1.5029887815066219
2.344,-3.229912302090167
2.345,-2.4576008500669935
2.346,1.7789393768575217
2.347,0.28145274739491816
2.348,-2.037067714782198
2.349,-1.4385244894419138
2.35,-0.3389138312418355
2.351,1.6366282749644978
2.352,0.7400628038673082
2.353,0.46264774891697696
2.354,3.657819617807929
2.355,0.48546890721341684
2.356,1.4491158029310303
2.357,1.0188004203525602
2.358,-1.0590373274730325
2.359,1.4725125353708615
2.36,-0.5655572205164232
2.361,-0.8917558146977673
2.362,-1.6539733500811271
2.363,0.08330089808112184
2.364,-0.8291631722315319
2.365,-1.6935416775542786
2.366,0.45715226555836463
2.367,-1.9921452308004115
2.368,-0.9076100458533682
2.369,0.09902771397166873
2.37,2.3141276070509633
2.371,0.5502876069033029
2.372,-0.7820295872047948
2.373,-0.5933706393544049
2.374,-2.3291728235044005
2.375,2.5881181249039162
2.376,2.8835717673145753
2.377,0.8949925728514945
2.378,0.24243316186255004
2.379,-1.428130076078454
2.38,-1.7565419224924983
2.381,-0.20507080625524865
2.382,-0.8719928192830174
2.383,-2.494119756700186
2.384,-0.7753476844352355
2.385,0.6496609483960926
2.386,2.2579843090753866
2.387,1.8618595988518905
2.388,0.20236234689067406
2.389,-1.076180791564755
2.39,1.1124349364773316
2.391,2.597679464835173
2.392,-0.11451790874046575
2.393,-0.3287695048776486
2.394,-0.04526034131954937
2.395,-1.9748833973539848
2.396,-0.25649583608316556
2.397,-0.27111793195062756
2.398,-2.8602408234984122
2.399,-1.4108924791858746
2.4,-2.215923960048228
2.401,2.436814917569631
2.402,3.984926112816189
2.403,-0.26343662788843303
2.404,0.22427803249210237
2.405,0.9427436065619406
2.406,2.332009862077214
2.407,0.6905568111049245
2.408,-0.2911499469955919
2.409,-0.7548492691312888
2.41,-1.4778600380596465
2.411,0.006037945010865804
2.412,0.39658145638024717
2.413,-1.6725769871181093
2.414,-1.5223232207251525
2.415,-0.879759322461206
2.416,-0.45386433839317863
2.417,0.6840318457742535
2.418,-2.2418657279356236
2.419,-0.47344658163185716
2.42,1.959554359094456
2.421,0.4264764324245897
2.422,2.762668013020435
2.423,3.2098402460890223
2.424,-1.7009489985990445
2.425,-1.1407393379521407
2.426,0.7718401443456342
2.427,0.11892449015180026
2.428,1.1170996065740981
2.429,-0.9522012241641273
2.43,-2.6568410691296087
2.431,-1.1724083322253813
2.432,1.1047941744788363
2.433,-1.439726651727919
2.434,-1.2253534346061974
2.435,1.5691762664335802
2.436,0.48584494619034807
2.437,1.1058955488321747
2.438,0.2034904751446323
2.439,0.5134325333108807
2.44,1.321112879462876
2.441,0.8748973304870532
2.442,1.205610658887365
2.443,-0.5599936473650344
2.444,-3.0183074995201395
2.445,0.13121811311465897
2.446,2.672914323118091
2.447,-1.0944971576441698
2.448,-2.555657870161556
2.449,-2.0545033111172235
2.45,0.3318876105211846
2.451,2.133749982096508
2.452,0.2852514203845488
2.453,-0.4164350353118102
2.454,-0.26525152475330854
2.455,-0.637532413533886
2.456,1.518201296695737
2.457,3.175194131470696
2.458,-2.244492179672328
2.459,-2.5243246941450996
2.46,1.4338963403529352
2.461,-0.09004620041995884
2.462,1.397832602580602
2.463,-0.7424787454230423
2.464,-1.893832100622146
2.465,0.25200633650243054
2.466,-1.311599380609171
2.467,0.7997624269609079
2.468,-1.1414540200217855
2.469,-1.8409349289129473
2.47,0.83691654927274
2.471,1.6588641744745392
2.472,1.009446497827526
2.473,-0.9301660453343491
2.474,1.9296948256036432
2.475,1.7644137234172221
2.476,2.161173870539284
2.477,-0.15538707952463482
2.478,-3.416335938261291
2.479,0.5812152158015862
2.48,-1.0719323003913799
2.481,-1.5572579488090688
2.482,0.9113179399388903
2.483,0.3957678862718606
2.484,-0.44025885207727294
2.485,1.1420448176904534
2.486,2.9744827573508794
2.487,-0.8963456760958315
2.488,0.1273102132971498
2.489,0.9188489624416815
2.49,-2.1544369042177203
2.491,0.7496873663158052
2.492,-0.3868142036667837
2.493,-1.2865299252929256
2.494,-0.8198153994982187
2.495,-1.2698407864311687
2.496,-0.21504694121634454
2.497,-2.048715989119813
2.498,1.882756307963661
2.499,0.4358075705013933
2.5,-1.993343907988725
2.501,2.4399529627484293
2.502,0.49858833348696907
2.503,0.4899290479786387
2.504,-0.043970884653814185
2.505,-0.029769069778374624
2.506,2.49428985109153
2.507,1.6276343355851919
2.508,-0.5485710368336155
2.509,-1.50542534403336
2.51,-1.1901308312760388
2.511,-1.1069956643770313
2.512,-0.03496774546322
2.513,-2.0941883894352262
2.514,-1.643511685793604
2.515,1.2053075531362452
2.516,1.720627073017036
2.517,0.02472217324602473
2.518,-0.6411551283634157
2.519,1.3517316826833963
2.52,0.9233473994657754
2.521,0.8754869641744241
2.522,-0.20522768446151624
2.523,1.0506450800180864
2.524,0.9310769870789746
2.525,-0.35788144814483935
2.526,0.8988538057333316
2.527,0.16255822932753972
2.528,-0.8925321510643114
2.529,-3.6030226205507265
2.53,-0.9052966742049351
2.531,1.3608015823146857
2.532,-0.762122322060162
2.533,-0.5119685635995608
2.534,-1.4491639926569713
2.535,0.39757667918029455
2.536,0.8878192471687664
2.537,-0.5314933953832995
2.538,1.7211894796769789
2.539,0.3198372536313116
2.54,-0.019886999071239815
2.541,1.206444930914114
2.542,1.6749676066245762
2.543,0.26742194396287056
2.544,-2.499679074232896
2.545,0.42429008335762475
2.546,-0.823763669775434
2.547,-0.41002553462993896
2.548,1.6008058171825144
2.549,-0.24035729252543891
2.55,-1.219724565717163
2.551,-1.2514645516585483
2.552,1.462896340790325
2.553,-0.7316975172557991
2.554,-1.5309123858405418
2.555,0.5953285132083788
2.556,2.0605811111054098
2.557,1.5722882613860139
2.558,-0.616467330321756
2.559,-0.4946303542998919
2.56,-0.8938774716835023
2.561,0.1795209397539384
2.562,0.23221920850960465
2.563,-0.14621077343969024
2.564,-0.1369173425724237
2.565,-0.5723804180436837
2.566,-0.22064211487653773
2.567,0.6447104074302965
2.568,-0.1785374717370064
2.569,-1.3583142386347669
2.57,0.018257160068983976
2.571,1.0234174388099677
2.572,1.7487760274297637
2.573,0.1794918366504183
2.574,-1.056333404726182
2.575,0.31438302303361765
2.576,0.6085494471193512
2.577,0.12906999742622075
2.578,-0.014805006765045287
2.579,-0.40766913671154015
2.58,-1.0681600569655685
2.581,-0.6576786176597555
2.582,-0.7018433038585083
2.583,-0.09974057267664999
2.584,0.7038267876529867
2.585,-0.613046278017868
2.586,0.5904360586966961
2.587,1.796441895982923
2.588,0.9776704721075856
2.589,0.3986425793529452
2.59,-0.29490369781529463
2.591,1.2680607106428214
2.592,-0.029375872507151957
2.593,-1.0690548991890236
2.594,-0.6071851700172736
2.595,-0.8673894822800159
2.596,-0.06895709440376657
2.597,-1.641989357730922
2.598,0.019063760903428567
2.599,-0.475560667560094
2.6,-1.552582552409025
2.601,0.7190247121180786
2.602,0.18015531914467015
2.603,0.19846366417614317
2.604,0.04069140296611886
2.605,-0.18377869159381974
2.606,0.7826295182206274
2.607,1.2261577577389287
2.608,-0.5913571366110086
2.609,0.11626170827568053
2.61,0.6563359769645283
2.611,0.6291475715935312
2.612,1.3271292375632493
2.613,-0.8151942111416265
2.614,-0.36502592953745083
2.615,-0.3468653374008495
2.616,0.4573708518078341
2.617,-0.016931066726238703
2.618,-1.0150366368365882
2.619,0.46753007671700064
2.62,-0.45452581770906
2.621,-0.11421818450293554
2.622,0.08168017457323892
2.623,0.583333442816333
2.624,0.39202383542829045
2.625,0.12566847980745488
2.626,0.875547799656091
2.627,-0.44461906691926206
2.628,-0.666907633935614
2.629,-0.500043875359708
2.63,-0.4938164975205428
2.631,0.18570516316469915
2.632,0.26020101928872935
2.633,-0.4638472160670901
2.634,-0.2775794835130509
2.635,0.051110710906499435
2.636,-0.0697241516640473
2.637,0.26952289602026985
2.638,-0.009908405866623157
2.639,-0.21212241990137018
2.64,0.3820781153937578
2.641,0.5525845659232118
2.642,0.27474124499855246
2.643,0.47470847926188553
2.644,-0.9513668671416262
2.645,-0.6460585290579188
2.646,1.3872265738089502
2.647,-0.43655730564973505
2.648,-0.8320082613738055
2.649,0.14127947586939588
2.65,-0.9845162117038384
2.651,0.3128607178950544
2.652,1.259126717604837
2.653,-0.4894146222852125
2.654,-0.8823137129026786
2.655,-0.3281539976433387
2.656,0.79113792769366
2.657,0.821195949023448
2.658,-0.28949329119041955
2.659,0.05615488162937271
2.66,0.483458724297667
2.661,0.8121583099264847
2.662,-0.10088201509266115
2.663,-1.3154808024010358
2.664,-0.8549501873573454
2.665,-0.5324857264400069
2.666,-0.09039799383564788
2.667,0.007848765590728023
2.668,0.37238456183515667
2.669,0.4620627559442159
2.67,0.09211276225145963
2.671,0.8872597674377141
2.672,0.4160448957697214
2.673,0.19826054663470538
2.674,0.09746496072418949
2.675,0.10382748768604777
2.676,0.6469547825998034
2.677,-0.3933950751147194
2.678,-0.5457460106641342
2.679,-0.3533833780579325
2.68,-0.14625331942654363
2.681,0.36601295095056136
2.682,-0.10344073018099939
2.683,-0.7048688282538079
2.684,-0.03665143124258842
2.685,0.07750144245073856
2.686,-0.25831300209152663
2.687,0.21241459849543567
2.688,-0.15908972956613127
2.689,-0.06344816536331827
2.69,0.06991757000355933
2.691,0.566498610688122
2.692,0.2833119715132961
2.693,-0.31660980408867584
2.694,-0.023854761080767516
2.695,-0.43978583522484427
2.696,-0.027811296145426323
2.697,-0.22446433610906513
2.698,-0.3126584032829866
2.699,-0.02976814086968406
2.7,0.05683769848979048
2.701,0.4123677145345115
2.702,0.09443154515955918
2.703,-0.015917164159184982
2.704,-0.13648231577718822
2.705,0.04507418925421425
2.706,0.3846378822425657
2.707,0.16113904553498407
2.708,-0.11662115498759303
2.709,0.07980524810417747
2.71,0.26719693611580375
2.711,0.02071633847866191
2.712,-0.060606512024475805
2.713,0.06693428239466517
2.714,-0.10866730740664689
2.715,-0.27885354128874
2.716,-0.21510821900345312
2.717,-0.1500535339126846
2.718,0.16878704876996842
2.719,0.022152284367498318
2.72,0.04082286259453835
2.721,0.22639893827187146
2.722,-0.04881828223119698
2.723,0.16915562923551458
2.724,0.07238607943117639
2.725,-0.05394155932140783
2.726,0.012462756230514058
2.727,-0.16273337494837434
2.728,-0.13984806495994873
2.729,-0.10693763203022831
2.73,0.1142656846752638
2.731,0.13920511230314425
2.732,-0.02546731994831087
2.733,-0.07071132847438293
2.734,-0.03200169414268386
2.735,-0.06990103444220408
2.736,-0.15692034626383133
2.737,0.017986583483026196
2.738,0.012764919825615749
2.739,0.147251602912245
2.74,0.2281297019111136
2.741,-0.003754872874865478
2.742,-0.011649856575832201
2.743,-0.16523775445387245
2.744,-0.2676707259178259
2.745,-0.07377179171125685
2.746,0.05060974290485412
2.747,0.08214013199423373
2.748,0.0336051580551106
2.749,0.018139902254614412
2.75,0.10532736239519357
2.751,0.12054002855802104
2.752,0.09769116037335057
2.753,0.05865384190117391
2.754,-0.0783571112241012
2.755,-0.10251998630832251
2.756,-0.04873237142328386
2.757,-0.06119416184726948
2.758,0.047790865253102055
2.759,0.09935212563783122
2.76,0.03936323067370448
2.761,0.03018472373133878
2.762,-0.08180795232424828
2.763,-0.14761846519244065
2.764,-0.10562963054353498
2.765,-0.06645817979898644
2.766,0.00809368999002763
2.767,0.056661589185705366
2.768,0.06719234487378299
2.769,0.058501507091428914
2.77,0.09490260804444009
2.771,0.16161427210038629
2.772,0.11442924471889487
2.773,-0.009827152986579876
2.774,-0.09312614208313025
2.775,-0.11603557165775993
2.776,-0.10034552466238435
2.777,-0.0582384737165875
2.778,0.02057612827350897
2.779,0.07379184604570296
2.78,0.06694299150579744
2.781,0.007698462845546547
2.782,-0.08656208963967642
2.783,-0.12490635446046697
2.784,-0.0954180627118289
2.785,-0.0415848195508864
2.786,-0.0022687009786857004
2.787,0.027853142352945573
2.788,0.06559299767793364
2.789,0.10047517538686529
2.79,0.11884569702430424
2.791,0.11445687895470516
2.792,0.07221222515672551
2.793,-6.42491229687972e-05
2.794,-0.07397286314948562
2.795,-0.11865893433186782
2.796,-0.0940489934237807
2.797,-0.05299873181448892
2.798,0.02529177944203438
2.799,0.06915790240435103
2.8,0.04653681078487998
2.801,0.02104938478522534
2.802,-0.0611516481762497
2.803,-0.09553266076553474
2.804,-0.08000238030729444
2.805,-0.05424428084185112
2.806,-0.005452095039159631
2.807,0.029021780758830475
2.808,0.06217164902524311
2.809,0.08260976888641164
2.81,0.09082568429673261
2.811,0.09517299393809389
2.812,0.07183620906655411
2.813,0.004935057264283161
2.814,-0.04730509935774111
2.815,-0.07935426004404239
2.816,-0.082349332764311
2.817,-0.027822355199604694
2.818,0.01664755880925024
2.819,0.026247615528020556
2.82,0.02450812934739164
2.821,-0.0013415352955730292
2.822,-0.05546997169775712
2.823,-0.08736723233745432
2.824,-0.06662986859869222
2.825,-0.01948475190245888
2.826,0.008323390112291232
2.827,0.026163504591089928
2.828,0.05859300806237763
2.829,0.06873957868169314
2.83,0.06378100013690079
2.831,0.07198421909234577
2.832,0.061009862186103235
2.833,0.0026005746246125228
2.834,-0.055893502647577496
2.835,-0.07212290779726595
2.836,-0.05507015209764333
2.837,-0.008698167065152067
2.838,0.022970403783461914
2.839,0.03541510075775611
2.84,0.015584290257989162
2.841,-0.018566760902808968
2.842,-0.03559328837715948
2.843,-0.06503478722950866
2.844,-0.056051060585366415
2.845,-0.03613994688515011
2.846,-0.010494212310330353
2.847,0.01903035086552294
2.848,0.03907377466552515
2.849,0.05946664146107004
2.85,0.06812488289460364
2.851,0.07622973251883594
2.852,0.03340060505123212
2.853,0.0050827861613989035
2.854,-0.022395912915170575
2.855,-0.06416742487191807
2.856,-0.058415668400522223
2.857,-0.028885599215291352
2.858,0.01906479377925035
2.859,0.023243099316681837
2.86,0.01204674146989717
2.861,-0.004473431750606509
2.862,-0.04236925703469651
2.863,-0.04053130857422726
2.864,-0.033707134530289215
2.865,-0.026126447383529153
2.866,-0.0028581540438304834
2.867,0.014201260671621002
2.868,0.05256663847962652
2.869,0.06911094719932988
2.87,0.06324051767937189
2.871,0.06386360743174341
2.872,0.022175758166795057
2.873,-0.0005922984166930809
2.874,-0.02340301484711102
2.875,-0.05494516524382827
2.876,-0.047638314840973264
2.877,-0.028226521676896044
2.878,0.00982447622620645
2.879,0.013478043707208053
2.88,-0.007771333035839637
2.881,-0.030132682971836064
2.882,-0.029528832725274505
2.883,-0.0339905719365269
2.884,-0.05566079565927186
2.885,-0.023827268518758438
2.886,0.0015777548910380634
2.887,0.03312418162239493
2.888,0.03825482472145678
2.889,0.05147143824636773
2.89,0.06241966150295026
2.891,0.026238339124061382
2.892,0.045436933198472744
2.893,0.0018197386404828677
2.894,-0.01216544053798796
2.895,-0.005266731466860568
2.896,-0.050932742634796385
2.897,-0.009682707682560321
2.898,0.001949500228031669
2.899,0.004214712094613184
2.9,0.009160375545644946
2.901,-0.021662612119279483
2.902,-0.02669899210651725
2.903,-0.035938902672789014
2.904,-0.03989169858816426
2.905,-0.014298492387822232
2.906,-0.0001857572524829442
2.907,-0.000489274049873002
2.908,0.02946056286909645
2.909,0.047869642122919394
2.91,0.0442988701899809
2.911,0.03831875689890782
2.912,0.021983800363917227
2.913,0.002310093928529551
2.914,-0.010037738636074855
2.915,-0.022827367607118093
2.916,-0.030301626750267246
2.917,-0.020264284907818002
2.918,-0.0008164671600765741
2.919,0.009218989592603519
2.92,-0.005948078932392813
2.921,-0.009839978727492281
2.922,-0.024850491860147598
2.923,-0.03305123193261393
2.924,-0.02380604562868681
2.925,-0.013571987068832555
2.926,-0.0013046227577524242
2.927,0.014372033504813161
2.928,0.04173196804293543
2.929,0.043343833452507
2.93,0.048549577491303425
2.931,0.028288197148458163
2.932,0.0140370748979477
2.933,0.008891038930230417
2.934,-0.00662247307228708
2.935,-0.015275283493898902
2.936,-0.03164635311419274
2.937,-0.020094616558689597
2.938,-0.021783498620109396
2.939,-0.002115549847529743
2.94,0.005778710407049542
2.941,-0.012028987554768639
2.942,-0.017324999087694117
2.943,-0.019421265557722556
2.944,-0.021287186641591897
2.945,-0.014353909837223238
2.946,-0.0022264175520610896
2.947,-0.008780527569062965
2.948,0.01829509726249219
2.949,0.02173935799447136
2.95,0.04425481771630471
2.951,0.04306790407507409
2.952,0.022884137625554375
2.953,0.021116005960874193
2.954,-0.02236362894591777
2.955,-0.002313328030679772
2.956,-0.012254228306495911
2.957,-0.014665576694021479
2.958,0.005814254676669422
2.959,-0.00967068407155082
2.96,-0.011755330643150791
2.961,-0.013704872034093847
2.962,-0.02237508401112438
2.963,-0.027906579852331928
2.964,-0.0030754884877981312
2.965,-0.009561962954010638
2.966,0.00755643740195655
2.967,0.005982301073548023
2.968,0.00582919612808702
2.969,0.028289801270270462
2.97,0.014274915025953374
2.971,0.022959311524748473
2.972,0.005858612224725442
2.973,0.01957136464991213
2.974,0.0003205678018675332
2.975,-0.01971012059805828
2.976,-0.005192748854214175
2.977,-0.022847118564161755
2.978,-0.0007334528858235392
2.979,-0.0019663888951578874
2.98,-0.0024755181770995402
2.981,0.0011932511879495487
2.982,-0.007540871040015506
2.983,-0.015269280246743733
2.984,-0.028030500930727842
2.985,-0.018032667120940756
2.986,0.0035730111825345388
2.987,0.008459525583993075
2.988,0.009673351870674314
2.989,0.04420119751166528
2.99,0.043874251933358574
2.991,0.02569130261664808
2.992,0.017915942765427642
2.993,-0.0017686338748830596
2.994,-0.01602503049359136
2.995,-0.015763343160234585
2.996,-0.011710943918187975
2.997,-0.023679780739411006
2.998,-0.001960175120271184
2.999,-0.0038407949246327512
3.0,-0.024047945087937114
3.001,-0.015307109110549444
3.002,-0.01684991497760248
3.003,0.009590368763226768
3.004,-0.004139077382771889
3.005,-0.012716254065304989
3.006,0.007964996341060099
3.007,-0.001072426040001165
3.008,0.027486317806806097
3.009,0.020704220787797604
3.01,0.023540611775701333
3.011,0.037668681707955565
3.012,0.0024869756775693537
3.013,-0.0080786381727549
3.014,-0.009817209397224164
3.015,0.00047399061838820293
3.016,-0.024130470316348414
3.017,-0.03546442858504796
3.018,-0.005735614776746846
3.019,0.002692698258431006
3.02,0.011059875766075974
3.021,-0.01237805915427963
3.022,-0.008748322480026037
3.023,0.002336965520889605
3.024,-0.018993816075868895
3.025,-0.006279529472886665
3.026,0.011088262667573968
3.027,0.012149764442012287
3.028,0.015119890968318138
3.029,0.018672209783847146
3.03,0.0019035394086396485
3.031,0.01175724005979853
3.032,0.021084467510277406
3.033,-0.007396204240546217
3.034,-0.0016109812577667745
3.035,-0.005233806987357835
3.036,-0.011216047763693057
3.037,-0.004630136867459588
3.038,-0.013493254766214725
3.039,-0.0045585248432054365
3.04,0.00031284469969717764
3.041,-0.003099607274341794
3.042,-0.014710387820674527
3.043,-0.0009312425446056606
3.044,0.0014921667736811763
3.045,-0.0176569579107018
3.046,0.012306805248742586
3.047,0.007381130811762739
3.048,0.014370671750977478
3.049,0.03210573257156961
3.05,0.0031310672087207113
3.051,0.012372861514652804
3.052,0.00538191335678167
3.053,-0.003658951263157166
3.054,0.010141565459756705
3.055,-0.015662665210187266
3.056,-0.016378085984610817
3.057,-0.0037748957643686503
3.058,-0.01935868998026881
3.059,-0.008857220045816676
3.06,-0.00460517746189458
3.061,-0.010660251080499249
3.062,-0.008091133860892528
3.063,-0.011771606068279762
3.064,-0.017673980255650514
3.065,-0.0007483249092715546
3.066,0.02101473225701123
3.067,0.0009526972243631696
3.068,0.0154610606579277
3.069,0.015284966714787018
3.07,0.007297522579133596
3.071,0.024073816439744464
3.072,0.014130168180334648
3.073,0.010525657755341897
3.074,-0.008891149399288917
3.075,0.004297293580657798
3.076,0.0018495349910940414
3.077,-0.006398742263916223
3.078,-0.002732012391387089
3.079,-0.012656631759243017
3.08,0.006170773361919594
3.081,-0.008483982328764439
3.082,-0.023742036993863697
3.083,-0.018839562693320246
3.084,-0.0017286657714366536
3.085,-0.002693269798653953
3.086,0.004566349204759749
3.087,0.010437285439435767
3.088,-0.005584281188555741
3.089,0.006610048789571012
3.09,0.0017138214672090982
3.091,0.011853033591302306
3.092,0.012240482488632848
3.093,-0.0021705478097144536
3.094,-0.006829775062033766
3.095,-0.00046604962557726914
3.096,0.00838496613179893
3.097,-0.006367333882432021
3.098,-0.002945583363412298
3.099,-0.00487442012615088
3.1,-0.009233582492299797
3.101,-0.0005515170057912251
3.102,0.015770375227182245
3.103,0.005543570101255411
3.104,-0.005591368237946803
3.105,0.0019931135858865198
3.106,-0.009566215400197708
3.107,0.009139619462205763
3.108,0.012523399191935718
3.109,-0.007560036394817669
3.11,-0.0004631561469986642
3.111,0.008991719505536917
3.112,0.001270078979744405
3.113,-0.008819704390115663
3.114,-0.0016939136434846983
3.115,-0.0005972856037224749
3.116,-0.010332847536443535
3.117,-0.011822897218069721
3.118,0.003100840870557885
3.119,0.011030849995712183
3.12,-0.010222160753355448
3.121,-0.011671144244111649
3.122,0.004601617150017236
3.123,-0.007425092321371984
3.124,0.0030546523301366287
3.125,0.003628483232093489
3.126,-0.0117876024658044
3.127,0.011233303189207693
3.128,0.01316003480330726
3.129,-0.00044990237097392895
3.13,0.014647105327234214
3.131,0.004318868721867485
3.132,-0.008289618035887042
3.133,0.01434053400239488
3.134,-0.0005144007005703304
3.135,0.00139723088589533
3.136,0.003432018274062688
3.137,-0.011460318880513402
3.138,-0.003907569147962114
3.139,-0.0020540040594912955
3.14,-0.00027459809636059065
3.141,-0.016878673947496498
3.142,-0.005305593066821884
3.143,0.0024234899437432685
3.144,0.004028242838574911
3.145,0.013117041657414563
3.146,-0.004916381029879191
3.147,0.001459287286980962
3.148,0.006751064190859272
3.149,0.0025542162541333097
3.15,0.02112310542264804
3.151,0.006348357778120851
3.152,-0.019221560206261753
3.153,-0.00045443080244087105
3.154,-0.006030381773378534
3.155,-0.01716628268283767
3.156,-0.010475897694265148
3.157,-0.0009303658985793809
3.158,0.013280422969678757
3.159,0.0006521529245875673
3.16,-0.005707210752078591
3.161,0.005672065084820255
3.162,0.0006255585511169795
3.163,-0.0010423178400549714
3.164,-0.0035556532469512387
3.165,-0.012123957573790076
3.166,0.0032452815058032734
3.167,0.006010544538617607
3.168,0.008868971549910851
3.169,0.003031796233602106
3.17,0.003412641216116492
3.171,0.011928598014972324
3.172,-0.004293882690671754
3.173,0.007179677507387572
3.174,-0.006521030283518037
3.175,-0.011753013972137691
3.176,-0.0131409167389291
3.177,-0.011304883048176602
3.178,0.009040450879957527
3.179,-0.0035127039544273534
3.18,0.009657910891266268
3.181,-0.0005445591112120247
3.182,-0.005081785201338763
3.183,-0.004223350214379256
3.184,0.0006421983988409875
3.185,0.011429997534802717
3.186,-0.006716171038315224
3.187,0.00630521626840872
3.188,0.01397977380225347
3.189,0.0201987587654875
3.19,0.0015993408696966893
3.191,0.01044744962618024
3.192,0.02290781614999305
3.193,-0.006608401186529446
3.194,-0.021266701166414152
3.195,-0.021022120223424295
3.196,-0.0005014200654165398
3.197,-0.02216950441005658
3.198,-0.012737915016358587
3.199,-0.0012352891861827126
3.2,-0.005762425667308516
3.201,0.0014402928504260648
3.202,0.0017576766699418005
3.203,0.01512350041340438
3.204,-0.006502540632548213
3.205,-0.005978682684903609
3.206,-0.007982776051885184
3.207,0.00631598039635672
3.208,0.00911703597421634
3.209,0.005521028927937191
3.21,0.015325462898646718
3.211,-0.010659515215586328
3.212,0.017558145445568232
3.213,0.010407826357078223
3.214,0.00457779362917975
3.215,0.009904523737554408
3.216,-0.01877136722975173
3.217,-0.013970239583055164
3.218,-0.010091086344638128
3.219,-0.002750017490619872
3.22,-0.01234464769335028
3.221,0.002510680113361067
3.222,0.01817178245870582
3.223,0.009159171804925618
3.224,0.009007799592365274
3.225,-0.008782387515299002
3.226,-0.007819354286481409
3.227,0.010651163947273026
3.228,0.008052561309157524
3.229,0.001093567264370507
3.23,-0.00024101226302718042
3.231,-0.018729922292544186
3.232,-0.009042617794560528
3.233,0.014471254010911557
3.234,-0.014012793433731002
3.235,-0.006083686783308428
3.236,0.009854634691969752
3.237,-0.02252402977445269
3.238,0.0011677845613133299
3.239,-0.002347659506576277
3.24,0.0017130404395372357
3.241,0.022983674364604398
3.242,-0.007968269878513224
3.243,0.012054892325807146
3.244,0.006110186982443111
3.245,0.0068686554987091525
3.246,0.003721821322500842
3.247,-0.010102955059521893
3.248,-0.00038602801349579656
3.249,-0.016549329882294517
3.25,0.004813579138801
3.251,0.0055000616721326235
3.252,0.0016818537307361917
3.253,0.00830332184603852
3.254,-0.0032334127051767353
3.255,-0.003605816095038652
3.256,-0.014947337489001135
3.257,-0.015815520448792548
3.258,0.005528233806178996
3.259,0.0037018660700168264
3.26,-0.0031277776285293106
3.261,-0.0032762284207332485
3.262,0.00011612136143545395
3.263,0.013350081457836234
3.264,0.015265409402960482
3.265,0.015892001995764585
3.266,-0.008121533424992791
3.267,-0.010557379996551123
3.268,0.001978715607969816
3.269,0.0040489869733442724
3.27,-0.00021141710279279032
3.271,-0.009933633922866962
3.272,0.008532314161184006
3.273,0.002634931584473741
3.274,-0.01097914510218767
3.275,0.006469779172814014
3.276,0.010149826648669752
3.277,-0.009437447790359044
3.278,-0.0005722057508055093
3.279,-0.0057661445075780525
3.28,-0.002711692912515029
3.281,-0.0018801212588065498
3.282,-0.004891846664393481
3.283,0.013012924841330813
3.284,-0.0013097310478228069
3.285,0.01377822983645021
3.286,-0.00038940235876312073
3.287,-0.006472064265440028
3.288,-0.007087941502100202
3.289,-0.0009998154923735127
3.29,0.013988831226387392
3.291,-0.019370582710052906
3.292,0.008696282395176556
3.293,0.007240080185346267
3.294,-0.01974204946052863
3.295,-0.008543733286824468
3.296,0.007062591291946949
3.297,-0.01068901068080404
3.298,-0.02281213862662989
3.299,0.01017571402210234
3.3,-0.0005514894750071801
3.301,-0.0002965897325961712
3.302,0.01038648089058291
3.303,0.004600054504284941
3.304,0.017200563656781426
3.305,0.01570163604790421
3.306,-0.0004298988578192879
3.307,0.00045348012184937177
3.308,0.009732097791517947
3.309,0.0001158723323992038
3.31,-0.015414695821722446
3.311,0.0064041095362256575
3.312,0.01620451478679144
3.313,-0.011907709232655573
3.314,-0.01052791626581763
3.315,-0.0008932752282864821
3.316,-0.008927984966823682
3.317,-0.019177184773581876
3.318,0.001536769136294434
3.319,0.014368867963061154
3.32,0.0007825581486072804
3.321,-0.0052598925460039525
3.322,-0.0031278791940586937
3.323,0.014225332775709329
3.324,0.02035488245968828
3.325,0.006497807018386894
3.326,-0.006234838847471358
3.327,-0.013054702753058938
3.328,-0.021875975514723506
3.329,0.006422557961237954
3.33,0.0029599502766219673
3.331,-0.01217623461959605
3.332,0.00950116436022469
3.333,0.006138454723391831
3.334,0.004787588369980804
3.335,-0.01744723645244281
3.336,-0.023484867987101317
3.337,-0.010452725111705707
3.338,-0.0032950205385598955
3.339,0.008811786957854619
3.34,0.01059276198978166
3.341,0.0004480941045215906
3.342,0.010944530994360307
3.343,0.02318181293566226
3.344,0.011247669682044579
3.345,0.01514091434654954
3.346,0.0006596860045565168
3.347,0.00220238661295484
3.348,0.0033706060303458317
3.349,-0.008612564721670345
3.35,-0.0022962025848736562
3.351,-0.00031657238310896186
3.352,0.006997404507380331
3.353,0.003460246493224972
3.354,-0.010612347552765173
3.355,-0.002693409402682526
3.356,-0.008475245604685589
3.357,-0.024099894322036006
3.358,-0.004292595675809238
3.359,-0.00956442885525777
3.36,-0.009447683326403934
3.361,-0.00312874732285427
3.362,0.002253326728822536
3.363,0.009202470169048444
3.364,0.013742701049683469
3.365,0.027482348043579657
3.366,-0.004383380161840698
3.367,-0.00958089989621015
3.368,-0.004164324231739828
3.369,-0.006496155911276909
3.37,0.0010610059263372155
3.371,-0.00794367633766779
3.372,0.019211311579722612
3.373,0.019602998641885805
3.374,-0.022282792998638702
3.375,-0.01640752597821021
3.376,-0.015261088632223446
3.377,-0.01719800439355108
3.378,-0.006719352700710493
3.379,-0.00980866749104861
3.38,0.019905137714491643
3.381,0.024163963181432744
3.382,0.01838770913807207
3.383,0.034486320138514805
3.384,0.028706011032903895
3.385,0.003594209427791196
3.386,-0.01474416785557385
3.387,-0.01464011219725871
3.388,-0.011197334134668852
3.389,-0.01072398920043419
3.39,-0.02143951670755641
3.391,-0.0028645030333723214
3.392,0.0005841947398543572
3.393,0.0018375997851812682
3.394,0.00805809398900455
3.395,-0.022711361047763622
3.396,-0.015002195908249251
3.397,0.005709137318098909
3.398,0.0061944078533972295
3.399,-0.005547264361864939
3.4,0.00024458156046552795
3.401,0.02067385959806085
3.402,0.01765832197125491
3.403,0.02918502729433942
3.404,0.02369854786315273
3.405,-0.011095009473461771
3.406,-0.002293135249993837
3.407,-0.015813725121675816
3.408,-0.028191617272995354
3.409,0.0060987207927618164
3.41,-0.012636002027287199
3.411,0.0038966085564840765
3.412,0.0265355246980682
3.413,-0.005150021345802659
3.414,-0.014182565083312396
3.415,-0.016287574018017552
3.416,-0.009159086223800406
3.417,-0.014241087898972007
3.418,-0.023039484958889262
3.419,-0.013730535923176999
3.42,-0.002140555970927733
3.421,0.007376057793752746
3.422,0.03175109374480172
3.423,0.030577141221059492
3.424,0.015079948598794328
3.425,0.019274324238962227
3.426,-0.0006165439004391247
3.427,-0.015673533303660246
3.428,-0.022181272633906148
3.429,-0.013180345164766164
3.43,0.0022828601541751556
3.431,0.020955548619811956
3.432,0.01734490734344597
3.433,0.0025674435154633846
3.434,0.012487895676940345
3.435,-0.008519055254077762
3.436,-0.017297667087277563
3.437,-0.028627554693912545
3.438,-0.027733453087268413
3.439,-0.0014839062436190669
3.44,0.0006060991964402479
3.441,0.009598705397257962
3.442,0.02751115449487357
3.443,0.0556282998643717
3.444,0.04097724061458084
3.445,0.007884002614028295
3.446,-0.010061954398384062
3.447,-0.03731404241428128
3.448,-0.04008484217781507
3.449,-0.0281013096163066
3.45,-0.006508394259615101
3.451,0.0022193410603255775
3.452,0.01872673128690866
3.453,0.001735126968414197
3.454,-0.03586222488526669
3.455,-0.000438795630654059
3.456,-0.010198270950380929
3.457,-0.02289145884996554
3.458,-0.010261976799470534
3.459,-0.017900509815740328
3.46,0.021230669635182046
3.461,0.03595005633556088
3.462,0.03781553590148493
3.463,0.05851736390401128
3.464,0.048295148834676165
3.465,0.011226375318134207
3.466,-0.012725224632139832
3.467,-0.03387934908698705
3.468,-0.04880088595625481
3.469,-0.027643659614826368
3.47,-0.00223598059371684
3.471,0.02533858879795971
3.472,0.024134124347325085
3.473,0.006611497303158053
3.474,-0.019640825427661303
3.475,-0.03015479729980122
3.476,-0.020810835970229292
3.477,-0.035227881587804
3.478,-0.006531651418938371
3.479,0.01267452729420615
3.48,-0.005363272092715239
3.481,-0.002101403575443927
3.482,0.03418859598086346
3.483,0.06163722444037704
3.484,0.043071866510265275
3.485,0.02625876661632104
3.486,0.00025509901747811136
3.487,-0.03947983285069519
3.488,-0.06716955456528534
3.489,-0.05013300239222401
3.49,-0.003213623906856696
3.491,0.02803490350932944
3.492,0.037520166341069146
3.493,0.009690500527088397
3.494,-0.008640134443525462
3.495,-0.010683851320943022
3.496,-0.02622071791464991
3.497,-0.024434704668247893
3.498,-0.020119675542565114
3.499,-0.012714927154028891
3.5,0.00726973243275883
3.501,0.013373450292367944
3.502,0.04283863850136282
3.503,0.07252945889691756
3.504,0.05765269768475369
3.505,0.0248913553921393
3.506,-0.020456468778192686
3.507,-0.05696188995223047
3.508,-0.07416329749299415
3.509,-0.043004149832474664
3.51,0.007687222690436948
3.511,0.035689871245095976
3.512,0.05666982551977732
3.513,0.01117970359366767
3.514,-0.02213643261067591
3.515,-0.022803585959804383
3.516,-0.05250373848763333
3.517,-0.014563427159123198
3.518,-0.005860086660220226
3.519,-0.022713180707366616
3.52,0.00402839063942928
3.521,-0.005411506835236744
3.522,0.03946813455287446
3.523,0.09740060931272712
3.524,0.07497675854847843
3.525,0.0152419371878986
3.526,-0.019096094659279736
3.527,-0.04702557544934789
3.528,-0.07040263263425595
3.529,-0.039152281291453206
3.53,0.020515822088893586
3.531,0.07308824077590378
3.532,0.04623260132277831
3.533,0.030388364208178753
3.534,0.0036914905200150644
3.535,-0.044018883827649534
3.536,-0.04436403287344906
3.537,-0.08409804315126607
3.538,-0.052313776824488206
3.539,-0.017381580063232975
3.54,-0.02242610914277126
3.541,0.009292817723577644
3.542,0.016826073707817406
3.543,0.0650195296078388
3.544,0.10559841626385766
3.545,0.05002287652407482
3.546,-0.028630731322917213
3.547,-0.022663489332646024
3.548,-0.05611662089341014
3.549,-0.06002087051794202
3.55,-0.007339849069555156
3.551,-0.045735061907046966
3.552,0.05023638676860642
3.553,0.06535303252559571
3.554,-0.016189286453312683
3.555,-0.05833158242059325
3.556,-0.09029637374953127
3.557,-0.027214241807901822
3.558,-0.018471420108444526
3.559,0.016660943777553228
3.56,-0.015340324413514003
3.561,0.014284814985259936
3.562,0.122305688783682
3.563,0.12878262809235685
3.564,0.1364036859284094
3.565,0.10874828658498688
3.566,-0.04610440542491489
3.567,-0.11227186616778664
3.568,0.068622074209155
3.569,-0.040287381941076825
3.57,-0.04301758961787949
3.571,0.08039548028419204
3.572,-0.04742259313041417
3.573,-0.028863578352003726
3.574,-0.06431616166994308
3.575,-0.18815909974563214
3.576,-0.16536644186222849
3.577,0.024710106967963517
3.578,-0.025694212510953704
3.579,-0.02424716192048324
3.58,0.12830578096100326
3.581,0.11447928825128215
3.582,0.21630507645141564
3.583,0.18411793584001468
3.584,0.028952109874652802
3.585,0.04448031878230856
3.586,-0.1211394459440734
3.587,-0.20475413337705206
3.588,0.10282403927406406
3.589,-0.13876216782744943
3.59,-0.2180018566277023
3.591,0.03638983431299398
3.592,0.018899787263735174
3.593,-0.07531203813143938
3.594,-0.11535676671188476
3.595,0.09345671304185588
3.596,-0.1702806770771928
3.597,0.010848080510955642
3.598,0.2596793056111247
3.599,0.12210212076167307
3.6,0.0391602880329389
3.601,-0.22754446220787206
3.602,0.025559404699231847
3.603,0.12430626415172039
3.604,-0.008277974031105625
3.605,-0.12373627657372496
3.606,-0.050324312054152796
3.607,-0.04564394662199666
3.608,-0.14979781379756885
3.609,0.21677848732036736
3.61,0.14713089854701716
3.611,-0.11039709369339731
3.612,0.33691660519104494
3.613,0.43485271376027385
3.614,-0.009790978512570658
3.615,-0.12048858728047121
3.616,-0.3475727830950641
3.617,0.0018106274480586965
3.618,0.2732818550559569
3.619,0.023594783092719385
3.62,-0.1106609975202389
3.621,-0.4799405316215961
3.622,0.10914162745986397
3.623,0.31826769529158894
3.624,-0.005993458845916427
3.625,-0.07262957748090682
3.626,-0.40236581074818767
3.627,0.04918561265043868
3.628,0.0991714716796516
3.629,-0.0250000554918402
3.63,-0.01733885920758385
3.631,-0.05908676906928351
3.632,0.2859265418982808
3.633,-0.08625714755044706
3.634,0.07642487915976334
3.635,-0.15832904523328906
3.636,-0.3702451169088053
3.637,0.2665017234880956
3.638,-0.09897674095684336
3.639,-0.2032455587687908
3.64,-0.3199998253097367
3.641,0.2055881176657498
3.642,0.18819290572061742
3.643,-0.10534835172728202
3.644,0.45336423188150765
3.645,-0.05842436232856334
3.646,0.08998358422539798
3.647,-0.0600245418701244
3.648,0.19213626218631102
3.649,0.21347406596975957
3.65,0.00044724287193795287
3.651,0.3231588229272033
3.652,-0.24527071603479306
3.653,0.3893064062993278
3.654,-0.08089760008533897
3.655,-0.266589923737851
3.656,-0.15596009925161475
3.657,-0.3470183225779199
3.658,0.239645508228501
3.659,-0.6278133162790742
3.66,-0.3513940600636528
3.661,-0.21162189014208221
3.662,-0.256843928628974
3.663,0.43482681117311067
3.664,0.3517134979642179
3.665,0.35743051286637173
3.666,-0.02376633951602013
3.667,-0.011503574867205796
3.668,0.32908626136008223
3.669,0.2515087146426016
3.67,0.1570604725746462
3.671,0.04047897902220274
3.672,-0.16248720854485538
3.673,-0.2902668035875666
3.674,-0.3357627561547054
3.675,-0.4717881219440642
3.676,-0.3640605578510027
3.677,0.16683370240677883
3.678,0.6478750300376123
3.679,0.380490842821272
3.68,0.20831449983048111
3.681,0.24845719429960694
3.682,0.19675581977698858
3.683,0.23120646521390642
3.684,-0.33744393202267053
3.685,-0.2875526944931672
3.686,-0.06611044509283528
3.687,-0.2886575403286239
3.688,0.0009287773666765142
3.689,0.28076428300806067
3.69,-0.07153052743294394
3.691,-0.6840011319046763
3.692,0.2478936899879942
3.693,0.6388720060909643
3.694,-0.44899178583650784
3.695,-0.40686016993044033
3.696,0.35656119433971145
3.697,0.27947506819007706
3.698,-0.4495205083496933
3.699,-0.09392253095434465
3.7,-0.0978738312765885
3.701,-0.4972623924276089
3.702,-0.21749314763042527
3.703,0.25982654498095475
3.704,0.46646586833174336
3.705,-0.5781647820358021
3.706,-0.28604394703470426
3.707,0.37627343358802934
3.708,0.5794606121097274
3.709,0.2225885541566893
3.71,-1.2180915074497762
3.711,-0.00196068864189225
3.712,0.4453590455727141
3.713,0.2153515268740721
3.714,0.9597766831616996
3.715,0.2753222830065508
3.716,0.1194928423059179
3.717,0.6502249469372046
3.718,0.5205722177668011
3.719,-1.1991501476610296
3.72,-0.5470978898124707
3.721,0.06273241655784637
3.722,-0.6634037635093972
3.723,-0.18165191601480302
3.724,-0.7422130682386362
3.725,0.44711735781504625
3.726,0.29665582820969644
3.727,-0.3752526860576145
3.728,0.4294489951452751
3.729,0.3487267575056928
3.73,0.40348163697647954
3.731,0.5891060392755716
3.732,0.5080459735222298
3.733,0.8463435265971194
3.734,1.705392785643249
3.735,-0.632947556599275
3.736,-1.4120207792717636
3.737,-0.16430294515579733
3.738,-0.6944307098106607
3.739,-0.8235166643021764
3.74,-0.908487597715499
3.741,-0.9882957792593023
3.742,-0.46663559439855257
3.743,0.6882003790417933
3.744,0.08447781071137346
3.745,-0.1452512395045513
3.746,0.5229548668404225
3.747,0.061379035606630966
3.748,0.7563886873240664
3.749,1.1455495799812914
3.75,-1.0585455266330606
3.751,-1.4385320197384939
3.752,0.0645701522786622
3.753,0.5646830807761802
3.754,0.9592096675942681
3.755,-0.4318283851949297
3.756,-0.3377154429562716
3.757,-0.28315311426537976
3.758,0.2524078400055123
3.759,1.2443815006974517
3.76,-1.6959340011512436
3.761,0.0692800544696206
3.762,1.7192162632988082
3.763,0.8595787211917051
3.764,1.6538788522226204
3.765,-0.5294238040039841
3.766,-0.16677534432922553
3.767,0.17917335805698775
3.768,-0.9246536509707177
3.769,-0.6125908912689517
3.77,-1.2008450864289868
3.771,-0.2925118677542209
3.772,-0.10366313146742284
3.773,-0.07689425670012126
3.774,-0.03353739449307962
3.775,-0.7635522281175771
3.776,-0.08343304660290339
3.777,0.13795396887092948
3.778,0.20577814184376808
3.779,0.543597214243662
3.78,0.23344197722852117
3.781,0.00908663716713018
3.782,0.8257083259053573
3.783,0.1432472389582089
3.784,-0.7846913500327478
3.785,0.3345240867395911
3.786,-0.8900295000750887
3.787,-0.48949777456800403
3.788,0.8750025895735792
3.789,-0.5510522309244715
3.79,-0.628083721324734
3.791,-0.02927482886434328
3.792,1.1869749224630401
3.793,0.9964843200493311
3.794,0.542102637052208
3.795,0.38481117711841695
3.796,-0.10975212399051296
3.797,-0.7005078293326706
3.798,-0.18363928113315775
3.799,1.721177124402759
3.8,0.11162737173140719
3.801,-0.4426707705837379
3.802,-0.023684854934310454
3.803,0.9668070792032264
3.804,-0.01997271631961809
3.805,-1.6718156193798053
3.806,-0.335555677197116
3.807,-1.1378218476192374
3.808,-0.21015514732233737
3.809,-1.0428552439389671
3.81,-1.3649429642163122
3.811,0.26820542662848457
3.812,-1.3031862892944448
3.813,-0.018271054927436303
3.814,0.9996350670203458
3.815,0.03757042499136852
3.816,2.0632280384090467
3.817,2.1846564811063605
3.818,0.27647375383350864
3.819,0.9152042800010662
3.82,0.6382520810900533
3.821,-1.1280467631004285
3.822,-1.275678103172577
3.823,0.15548033827272936
3.824,-0.12486073676926049
3.825,-1.006562866746983
3.826,-0.17065650403231075
3.827,-0.2693042619257531
3.828,-0.13710591873837769
3.829,1.3000416417694154
3.83,0.3264217643608288
3.831,-0.708077041653249
3.832,0.8838766091719934
3.833,-0.2656046503076375
3.834,-0.5857079950200574
3.835,0.1005991212836759
3.836,-1.985792439137055
3.837,-0.22454769181629203
3.838,0.9597538742264999
3.839,-0.40444209411041954
3.84,0.6472898581354148
3.841,0.1675882760750395
3.842,-0.9147229402616166
3.843,1.386428797181651
3.844,2.0490658073961545
3.845,-0.8195149567425006
3.846,-1.7622582263138222
3.847,0.08402248631257969
3.848,1.0111465076986415
3.849,-0.8183652707896788
3.85,-0.08817784106389365
3.851,0.9714665279325672
3.852,0.07962331100802852
3.853,-0.4441968164380267
3.854,-0.5866158216325154
3.855,-0.4423880512533104
3.856,-1.834920756257884
3.857,0.8929874095190347
3.858,2.1923060868329696
3.859,0.01933177882409566
3.86,-0.2629876691474833
3.861,0.6606454122216137
3.862,1.7283164441591663
3.863,0.36202784348623535
3.864,0.3606581052743343
3.865,-1.0784886896206538
3.866,0.3052672046098711
3.867,1.4702721904741032
3.868,-0.5973145901853901
3.869,0.31153790390652203
3.87,-2.212609536123229
3.871,-1.6253511308116768
3.872,-0.23469746316948642
3.873,-0.4450306160078548
3.874,-0.6749105206163755
3.875,-2.1795699766202765
3.876,-0.5588193844833619
3.877,0.19205947000323145
3.878,0.3347602331633531
3.879,0.6129381419685005
3.88,1.0596296821956845
3.881,-0.9183761222940023
3.882,0.01751258944620407
3.883,2.7281150806193555
3.884,0.9501515864070021
3.885,-1.018113289144966
3.886,1.2583223363736586
3.887,3.092113457882343
3.888,-0.38268775545008105
3.889,0.03628628489719066
3.89,-1.2732711335686446
3.891,-1.804033985715925
3.892,-1.0337239599829906
3.893,-0.6247470252576426
3.894,0.28549745715256675
3.895,-1.3641944256958165
3.896,0.7881597044589872
3.897,1.1691731925539708
3.898,1.7452900167527168
3.899,0.8436096162264597
3.9,-0.11937060061645474
3.901,0.18836596821876384
3.902,-0.7329787532855102
3.903,-0.10073288963651866
3.904,-0.4186539345657385
3.905,-2.454480936388195
3.906,-2.9714369640619536
3.907,0.48154683751796157
3.908,0.16239431569255053
3.909,1.0108930327853423
3.91,1.3497797845378594
3.911,-2.2598160118250448
3.912,-0.4413915759428038
3.913,4.040051464153796
3.914,3.214182348547378
3.915,0.2632908490089895
3.916,0.2655901758599558
3.917,0.01732712845035711
3.918,1.3730194423756363
3.919,-0.029089589644219038
3.92,-3.0923864236439114
3.921,-2.1126617429204413
3.922,-0.6176031348573433
3.923,-0.8250318725881944
3.924,-0.5176066891406479
3.925,-1.7400324696619707
3.926,-2.0635122189838704
3.927,1.5912469176184991
3.928,1.0384987560706778
3.929,1.3914342338097223
3.93,0.9839447200824464
3.931,0.9673440073999892
3.932,2.170384538766245
3.933,0.8255508978441743
3.934,0.15182441238798144
3.935,-2.0133867679571877
3.936,-1.0744297287886733
3.937,0.37101700320363795
3.938,2.339855887627754
3.939,0.1886826344393921
3.94,-2.2280809412974407
3.941,-0.8434108486056686
3.942,-1.4002150181952504
3.943,0.4353993129368009
3.944,1.0808126807193876
3.945,-0.4288277108851205
3.946,-0.8973742728796591
3.947,1.268440604056892
3.948,0.18474293936603609
3.949,-0.3144710014436669
3.95,-1.0922676242582503
3.951,-2.8579673737728277
3.952,-0.2158026875041134
3.953,2.525848024371821
3.954,2.4889907520903893
3.955,-0.9922148895101743
3.956,-0.693045943975705
3.957,-0.2438359289284769
3.958,0.33838038081867805
3.959,-0.24744744954412756
3.96,-0.5612982361169823
3.961,0.12374666800861495
3.962,-0.44116116475962797
3.963,0.9796683704830284
3.964,0.8315643264566833
3.965,0.9931850218559555
3.966,-1.581996084945274
3.967,0.20514439082265948
3.968,2.9925246207999354
3.969,1.627574362520201
3.97,0.408158632535765
3.971,-1.3585529785197206
3.972,-0.7551352139282984
3.973,1.0489177214674197
3.974,1.22245792297633
3.975,-3.696218078591055
3.976,-2.8097068877284817
3.977,1.3340026656388604
3.978,0.8541806321872321
3.979,-0.33674677339483683
3.98,-0.8860996775040293
3.981,-1.2821506942259377
3.982,-0.5552948487198159
3.983,3.0158585605532506
3.984,1.0889174835292552
3.985,-1.2506382488538577
3.986,0.11805800641862087
3.987,0.16852859125754416
3.988,1.1978192387414854
3.989,0.48672811885079903
3.99,-2.496684008635147
3.991,-1.982901483510847
3.992,-0.24244107873943502
3.993,-0.21336651982003563
3.994,-0.6232198761007273
3.995,0.34738645028797116
3.996,-0.3259392465173101
3.997,-1.3289928733242162
3.998,1.4779332797930407
3.999,1.0122277723227806
4.0,0.15917023898205265
4.001,0.4464182761012788
4.002,1.2729558658252518
4.003,1.7376918242181505
4.004,0.9703131617525919
4.005,0.2576896686228681
4.006,-1.5164057829488204
4.007,-1.070646846818759
4.008,0.6632981927735843
4.009,0.49753127513715867
4.01,-1.687080232693348
4.011,-0.21621042995958378
4.012,-0.36609760317306533
4.013,0.37611222635943387
4.014,1.7848156729157738
4.015,0.571886195331666
4.016,1.547286421684799
4.017,-0.9700566626071903
4.018,-0.36358277741009615
4.019,1.1202300388446997
4.02,0.2605808325458028
4.021,-0.2432702404228949
4.022,-0.5597635201523786
4.023,-1.1014821155192749
4.024,-1.655259811512716
4.025,-0.26372732266404214
4.026,-2.3029439310135436
4.027,-0.428110594752688
4.028,1.9519192122564535
4.029,-0.29884864257951793
4.03,2.4669223960351543
4.031,1.6743643534469577
4.032,-0.873238660064478
4.033,0.45215386721937423
4.034,-1.8729359626914468
4.035,-0.8865402660667632
4.036,0.11031428955501896
4.037,-0.19820911320061338
4.038,0.7446434476897534
4.039,-1.2195362436454338
4.04,-0.19659084737301338
4.041,-1.0814440211002365
4.042,-0.6377526315964128
4.043,1.1638928981948289
4.044,-1.3430988103447121
4.045,-0.7831594612003389
4.046,0.8079892863420957
4.047,1.8307472447726185
4.048,2.2794272585371296
4.049,1.7773886428554868
4.05,-0.33598716347629637
4.051,-2.2546952549845978
4.052,-0.80001101372889
4.053,0.6389517762907366
4.054,1.6736320344179185
4.055,-0.09903043810500545
4.056,-0.16532187786834301
4.057,0.35448288506903725
4.058,-1.288709085273126
4.059,0.6178478503588378
4.06,-0.8435792786635095
4.061,-1.2076802202004804
4.062,-0.7447325616389607
4.063,1.304937750949978
4.064,2.236357108313326
4.065,-2.093988102057563
4.066,0.7945059297229363
4.067,-0.6167538946940823
4.068,-1.2152036657488972
4.069,1.4507975010244918
4.07,-0.31380344759148515
4.071,-0.24518956015518856
4.072,0.049030921503029734
4.073,1.9244545633862438
4.074,0.3723265803697857
4.075,-1.471337874651692
4.076,-0.4764637460569229
4.077,1.229043661984935
4.078,0.07242523154838584
4.079,0.050162504189630974
4.08,-0.012729661761579152
4.081,-2.268747815494424
4.082,1.0095971782821267
4.083,-0.8771951342580067
4.084,0.7769061128026878
4.085,0.7801578622612332
4.086,-1.3556595055598246
4.087,1.8752953351244028
4.088,-1.5824485646622701
4.089,1.3877084765465577
4.09,-0.5777703544325026
4.091,-2.945632928618048
4.092,2.415168669547779
4.093,0.8114943956068815
4.094,-0.6180574087155268
4.095,-1.1652566372323714
4.096,-0.25616746191843853
4.097,0.9340138347604712
4.098,1.654720971030776
4.099,0.9001874847463427
4.1,1.2191256573138807
4.101,-0.5955304457138783
4.102,-1.4982787414690453
4.103,0.2999781047698828
4.104,-2.277501189981835
4.105,-0.6700556241623039
4.106,-2.031972046096848
4.107,-0.27061379596693996
4.108,1.7778057290992773
4.109,-0.8172124720818918
4.11,0.47139925830818696
4.111,-0.7898928864176497
4.112,1.9285956899193848
4.113,1.1490002113360862
4.114,-0.22000008239054553
4.115,1.5979147865121557
4.116,-0.8175605842076954
4.117,0.05593516256844702
4.118,-0.05824674418335753
4.119,0.7363812358397382
4.12,0.5732738941386075
4.121,-2.656610155123019
4.122,-0.5577350831072146
4.123,0.9090833929376859
4.124,-0.028027235989394217
4.125,0.5349060282040294
4.126,-0.6963182984745757
4.127,-0.2589154292866199
4.128,1.893610245831566
4.129,0.5036982469758537
4.13,0.14897625416909321
4.131,-0.06238555217143469
4.132,0.4241554751440857
4.133,-0.0190871566843112
4.134,0.755656326890339
4.135,0.90142078023712
4.136,-3.4831555567371573
4.137,0.07912659786083309
4.138,0.42976171991730133
4.139,-1.6901836393699923
4.14,-0.513406650208094
4.141,0.03711278797557488
4.142,0.18798943092065365
4.143,-1.5728201013586391
4.144,1.425851686129187
4.145,-0.15283016221702855
4.146,0.28618354487868236
4.147,2.1092843790098206
4.148,0.0022441115754194135
4.149,2.0589394159211576
4.15,-0.8000710551431423
4.151,-2.047539212354169
4.152,0.8222210527654252
4.153,0.029723801114175774
4.154,-1.024131964193777
4.155,-0.7717912232572497
4.156,-1.000403978550061
4.157,-0.17065963265041242
4.158,0.4344067216240852
4.159,-0.7782536393296704
4.16,-1.2567480379498412
4.161,0.004229373439671141
4.162,1.930953959479985
4.163,1.2152891356916702
4.164,1.5034270217803356
4.165,0.575907280455024
4.166,-0.7711788582901188
4.167,0.5636432663181349
4.168,0.17666261608940415
4.169,0.9870686517646665
4.17,-0.006502983580259317
4.171,-0.550227765057564
4.172,0.04847471637326639
4.173,-0.6438763956005737
4.174,-0.8264436489857792
4.175,-1.1031062038930182
4.176,-0.630602735044762
4.177,-0.2715117083995238
4.178,1.2898397275795404
4.179,-0.20949301702346385
4.18,0.3615995352601928
4.181,0.5451941317450697
4.182,-1.1182331976073108
4.183,2.4776538299694373
4.184,0.3756400562177265
4.185,-2.226884798277761
4.186,-0.30572496508547903
4.187,-0.2502295508340375
4.188,-0.08471983967447774
4.189,0.5532259935248678
4.19,-0.6702859507061583
4.191,-0.6832767784749516
4.192,-0.3903137101066896
4.193,0.5428057019955839
4.194,1.4700676527931498
4.195,-0.9264182015451927
4.196,-0.28585438279282116
4.197,0.7245406822697648
4.198,1.3681990086902032
4.199,0.13958376078248197
4.2,-1.3297410755537915
4.201,-0.1366400029951256
4.202,0.419863819489522
4.203,1.2405068422975785
4.204,-0.8926305294984183
4.205,-0.11373580504255071
4.206,1.2865138002032235
4.207,-0.9734789002359457
4.208,-0.6984381310887653
4.209,-0.6570372500708035
4.21,-0.4185330391414043
4.211,-0.2522148940870626
4.212,-0.24049202951320744
4.213,1.968124208512217
4.214,-0.09801275712380919
4.215,-1.0070832195922799
4.216,0.7872973475821793
4.217,-1.3619630721421685
4.218,0.33100386088165584
4.219,2.5475371944564147
4.22,-0.3960071857912276
4.221,-1.523237431670906
4.222,-0.19305447114936852
4.223,-0.20446120779338572
4.224,0.2631689120439937
4.225,-0.3510096988793897
4.226,-0.7941103527608323
4.227,0.9017534052676783
4.228,1.166855193715413
4.229,0.4918269478009133
4.23,-0.12791621357649208
4.231,0.42965184373475074
4.232,0.4819258019120951
4.233,0.7524595546328154
4.234,0.04049244919561464
4.235,-0.8770662084128813
4.236,0.03869182899259349
4.237,-0.45995668746568785
4.238,-0.6187759035003915
4.239,-0.3930175967130383
4.24,-0.30779971639247056
4.241,-0.848324898577956
4.242,-0.4804597919710691
4.243,0.45426578279674723
4.244,-1.1359489529154263
4.245,-0.8740339356083228
4.246,0.12639898592871762
4.247,-0.08662533491181465
4.248,1.2829490773726038
4.249,0.7655484434254737
4.25,0.2781944817311378
4.251,0.47756628954613356
4.252,0.009607159030895429
4.253,0.3284725941006561
4.254,-0.2631274580696564
4.255,0.6077924202554335
4.256,0.45404443232330643
4.257,-0.6609940098520373
4.258,0.2161113375877603
4.259,0.6187011861622311
4.26,-0.4199287078338987
4.261,-0.7423791042564849
4.262,0.5140344790679419
4.263,0.5458865111148825
4.264,0.40863672441069365
4.265,-0.3177202717267211
4.266,-1.1280754011470409
4.267,0.29784068223534466
4.268,0.5639581420368185
4.269,-0.24507277858089216
4.27,0.017034846947243443
4.271,-1.1227712432181
4.272,-1.0074984857696427
4.273,-0.025303587363367075
4.274,-0.22002370280650885
4.275,-0.028871555974430557
4.276,-0.9767265053365113
4.277,0.6666828044371523
4.278,1.3095667860734124
4.279,0.47029648675000324
4.28,0.7347801541361616
4.281,-0.3814443391092931
4.282,0.8234046504874007
4.283,1.1547739721746266
4.284,0.8024138830208397
4.285,0.05995216761230501
4.286,-1.5518887081108823
4.287,-0.3416056972276642
4.288,-0.17300938130338428
4.289,-0.6924060900551653
4.29,-0.3592222963415045
4.291,-0.7088871108226714
4.292,-0.28794712631768726
4.293,-0.1071379371404044
4.294,0.15230014361640065
4.295,0.5833011598926967
4.296,-0.22060631203587047
4.297,0.17479620717689623
4.298,0.4286908236306347
4.299,0.7874380764916435
4.3,0.34776275625049896
4.301,-1.1568870905814448
4.302,0.5117877972317001
4.303,1.041188395833849
4.304,-0.354916115800844
4.305,-0.4696980723540911
4.306,-0.51611121707526
4.307,-0.3645761418513992
4.308,0.10041945940905153
4.309,-0.8432443516815159
4.31,-0.6754138586991902
4.311,0.38697691106202325
4.312,-0.09342987581270559
4.313,0.9483554477902619
4.314,0.580381627117492
4.315,-0.6205706835010996
4.316,0.1801304344183321
4.317,0.04526336619740355
4.318,0.05989852614275043
4.319,0.18420173884083052
4.32,-0.12801120011746261
4.321,-0.0839792513980962
4.322,0.12848825921175838
4.323,0.2050905051600373
4.324,-0.6250035671394456
4.325,-0.2828191519962199
4.326,0.5788823681191176
4.327,0.2422622618073074
4.328,0.7271325473441066
4.329,0.5353472339017349
4.33,-0.16585250125051842
4.331,0.06173661022906937
4.332,0.07535080304912435
4.333,-0.16307990691443225
4.334,0.11328549142981113
4.335,0.2254949456217781
4.336,-0.5472228057984075
4.337,-0.051500949410820326
4.338,0.17360186398392824
4.339,-0.3912875658193126
4.34,-0.4103572476761435
4.341,-0.638580451245097
4.342,-0.2569851856327029
4.343,-0.24587891859067895
4.344,-0.0018967779571772148
4.345,0.3437132056333181
4.346,-0.16324070581321565
4.347,-0.006466752774674678
4.348,0.12854646500699798
4.349,0.2337558010683514
4.35,0.3214456119403827
4.351,-0.018284998267883518
4.352,0.22618578673250608
4.353,-0.03370213120991327
4.354,-0.19996543491596236
4.355,0.15441957357854386
4.356,-0.455243313847845
4.357,-0.05932643541345927
4.358,0.2538824573924242
4.359,-0.12508573379210314
4.36,0.09777848166461786
4.361,0.09972279753862304
4.362,0.43806454136192496
4.363,0.25318874415115983
4.364,-0.05635846640588632
4.365,0.07461164376254453
4.366,-0.02733560303305269
4.367,0.03627628426493161
4.368,-0.13484606086885015
4.369,-0.46631341067520593
4.37,-0.18329994186790885
4.371,0.14777226877395216
4.372,-0.006012592465931485
4.373,0.1232820216239462
4.374,0.07767728687731593
4.375,-0.1369391036512726
4.376,-0.047619096262959834
4.377,0.0035773441482778723
4.378,0.057038738843187484
4.379,-0.07974223406390138
4.38,-0.02924785444649971
4.381,0.031417393647219016
4.382,0.06292416602202147
4.383,0.27933014282611657
4.384,0.22970413656912905
4.385,0.1493331528943905
4.386,0.03853732603126146
4.387,-0.12359064604703532
4.388,-0.36825005047318266
4.389,-0.19393760807596097
4.39,-0.2424136715932036
4.391,-0.3756983549462478
4.392,0.16484271741482218
4.393,0.11245799695367693
4.394,0.11197569239269053
4.395,0.09338702150505213
4.396,-0.12049838716204567
4.397,0.04565835309500578
4.398,0.17009311462783644
4.399,0.0019147087791265213
4.4,-0.023777586126650145
4.401,0.09390777341500554
4.402,0.06922021946601913
4.403,0.1477476899269024
4.404,-0.048848761644692984
4.405,0.07626329302233682
4.406,0.016027393103090884
4.407,-0.1411607615073535
4.408,-0.14084446631690004
4.409,-0.04530879567136882
4.41,0.09571868410083682
4.411,-0.139982447085696
4.412,0.13206382920353305
4.413,0.08923120931155132
4.414,0.07365974835289756
4.415,0.01772336851404288
4.416,-0.08013434412782698
4.417,0.008842891262554234
4.418,-0.04442331458488025
4.419,0.08264411560887146
4.42,-0.16376053968457152
4.421,-0.019709964998995758
4.422,0.018918747479215358
4.423,0.04188929066823775
4.424,0.11495115575150851
4.425,-0.06307748257664342
4.426,-0.040276567201239136
4.427,-0.1537540153970332
4.428,-0.051230251703107854
4.429,-0.10105143798218769
4.43,-0.07282568968062311
4.431,0.045050481594818934
4.432,0.0720323915410029
4.433,0.10712741624434555
4.434,-0.017024405697096186
4.435,-0.00716270442965989
4.436,0.05560638121100394
4.437,0.06753165024313407
4.438,0.01943787478532459
4.439,-0.008212660827953501
4.44,-0.10819637570785726
4.441,0.005993733332180701
4.442,0.10154610912321237
4.443,0.07743360318984834
4.444,0.17264603022172714
4.445,0.03614201451842558
4.446,-0.016568091703660588
4.447,-0.06362630795143773
4.448,-0.10694579225468316
4.449,-0.04130757110662776
4.45,-0.06401822735838192
4.451,-0.019133194332481503
4.452,0.05605104988971192
4.453,0.07653731553425457
4.454,0.00619647182362193
4.455,-0.07727341250364646
4.456,-0.08702125523029891
4.457,-0.052634619482465464
4.458,-0.059047054979459175
4.459,-0.030712612594718768
4.46,0.024807165801002375
4.461,0.00415890716329418
4.462,0.0519970586391847
4.463,0.11306809077461215
4.464,0.10037475955766516
4.465,0.0654641459154548
4.466,0.011605687974677825
4.467,-0.08073230404452178
4.468,-0.119828528967857
4.469,-0.07807977829500581
4.47,-0.03080117339369889
4.471,0.043615134754501135
4.472,0.05300887221503295
4.473,0.0429562606594482
4.474,0.037740797540657234
4.475,-0.032272307170431676
4.476,-0.03378735393878572
4.477,-0.021730254718314017
4.478,-0.023310111052027918
4.479,-0.008114078763948833
4.48,-0.019961474984077493
4.481,0.005761349483117129
4.482,0.04442594420985863
4.483,0.0915598606330487
4.484,0.09227174643346645
4.485,0.045330409541630534
4.486,-0.007935791681940876
4.487,-0.07657009587334884
4.488,-0.09563466653318567
4.489,-0.07659640965855863
4.49,-0.025499528375290507
4.491,0.018823933725117967
4.492,0.044476230409068215
4.493,0.036095501779729394
4.494,0.019884748728387587
4.495,-0.00041371699040399987
4.496,-0.027096079619701167
4.497,-0.012194032422722073
4.498,-0.029843339869388984
4.499,-0.027507565816498138
4.5,-0.009597540430247544
4.501,-0.005816542073923327
4.502,0.03132397326348582
4.503,0.07088602268450492
4.504,0.07738066580890757
4.505,0.04858182094889184
4.506,0.0032746340276315795
4.507,-0.05627745331652287
4.508,-0.07288235701543051
4.509,-0.06601926007527201
4.51,-0.03485520572312183
4.511,0.028713376259503952
4.512,0.03159971578935006
4.513,0.02104755524156885
4.514,0.006777366465538812
4.515,-0.021035582174037722
4.516,-0.02313556421995957
4.517,-0.01624319957392384
4.518,-0.008939858245230537
4.519,-0.022071932216687472
4.52,-0.006179896535010651
4.521,0.018932246027318935
