Time,EMG_Signal
0.0,0.004967141530112327
0.001,0.014758333460105133
0.002,0.032573836216373823
0.003,0.04257938531917366
0.004,0.01976931785873922
0.005,0.012847123199171074
0.006,0.02622266954558304
0.007,0.016153093113609344
0.008,0.0026072600697449174
0.009,0.010112448504555983
0.01,-0.004257208133816457
0.011,-0.008590209355174013
0.012,-0.004128448982378763
0.013,-0.026857622734536294
0.014,-0.026925803557190948
0.015,-0.020057463957004258
0.016,-0.031485273438292535
0.017,-0.02345274146977201
0.018,-0.034423339721415674
0.019,-0.029510184384690188
0.02,0.015410291342614218
0.021,0.014636988994962314
0.022,0.027525977606661707
0.023,0.013855316135681714
0.024,0.01742069944377226
0.025,0.017051354911291505
0.026,-0.000325799653417648
0.027,0.012989276543034823
0.028,0.0020491206971981757
0.029,0.0025233646906081663
0.03,-0.004886695432653473
0.031,0.015343217019558472
0.032,-0.0059297545295541616
0.033,-0.0175487004162092
0.034,-0.0006980098805425324
0.035,-0.025889924540682695
0.036,-0.01851529394395186
0.037,-0.0454389546518133
0.038,-0.03787207170603272
0.039,-0.012665723572097685
0.04,0.00889120191051273
0.041,0.01936108561099798
0.042,0.026446779203070484
0.043,0.025844240503082403
0.044,0.008831696566895343
0.045,0.009495984358894392
0.046,0.007329950814003918
0.047,0.020555623326093845
0.048,0.012243694825657004
0.049,-0.01143819807415451
0.05,0.005123005960318228
0.051,-0.006278700438338532
0.052,-0.011812426150040248
0.053,-0.00010336582960122735
0.054,0.002137882235483125
0.055,-0.003617459903829584
0.056,-0.028244999915513838
0.057,-0.02818339636480394
0.058,-0.020526723168554535
0.059,-0.004128160665198404
0.06,-0.0025346146809833068
0.061,0.0165412695450207
0.062,0.017290231058688384
0.063,0.017643389583274563
0.064,0.032492209987501665
0.065,0.031006716284506
0.066,0.011965978462321
0.067,0.020769320132041056
0.068,0.013173308541022487
0.069,0.0004902859025631939
0.07,0.006245243236929784
0.071,0.013701447230624483
0.072,-0.004652671714369602
0.073,0.010174935626900836
0.074,-0.033621105940459944
0.075,-0.003962950317496125
0.076,-0.0182342432820347
0.077,-0.02733341306503132
0.078,-0.022173997001716277
0.079,-0.03301173135411987
0.08,0.0008077929040399681
0.081,0.022716180812858505
0.082,0.04387952607855385
0.083,0.025169564865892138
0.084,0.017028630697869973
0.085,0.013173161612124347
0.086,0.022586315338188334
0.087,0.014767512515289976
0.088,0.005005149650360475
0.089,0.012819751659263492
0.09,0.004347444387735116
0.091,0.008752698368212892
0.092,-0.010569992828234294
0.093,-0.008003393073364966
0.094,-0.010600229863054825
0.095,-0.026072843676036996
0.096,-0.01539945807300789
0.097,-0.02098896440724351
0.098,-0.022296881101591996
0.099,-0.014738560417097582
0.1,-0.010406081128789539
0.101,0.015681475123593448
0.102,0.02641606982411288
0.103,0.023071877180786387
0.104,0.024242843262919554
0.105,0.022973122460453774
0.106,0.033035780573224344
0.107,0.013967149867531784
0.108,0.013619366202216805
0.109,0.007683466430656735
0.11,-0.015070459977592786
0.111,-0.0004585746208450275
0.112,-0.0022071143600506113
0.113,0.02064542207727899
0.114,-0.007863260918371426
0.115,-0.007683001836321687
0.116,-0.01796884035824976
0.117,-0.034547642700872266
0.118,-0.010181418721074306
0.119,-0.004135278580725543
0.12,0.012395734689418013
0.121,0.011531548860687125
0.122,0.04460835666588196
0.123,0.01781303870266456
0.124,0.03246086904736633
0.125,0.04157346353521789
0.126,0.005004544733555628
0.127,0.007294071290861324
0.128,0.012775740603572328
0.129,0.004128218902101873
0.13,-0.010654649694753136
0.131,0.0012266062972370682
0.132,-0.012698363815581998
0.133,0.0014826897972657262
0.134,-0.014400456924169448
0.135,0.005533975023545263
0.136,-0.024721482412001086
0.137,-0.025349039978228502
0.138,-0.01274237545046779
0.139,-0.023231493697507998
0.14,0.007491429471839459
0.141,0.03442791979189615
0.142,0.015236301387444485
0.143,0.0344082568322547
0.144,0.02992114111295824
0.145,0.02821679460698303
0.146,0.0032697004466367115
0.147,0.00048142039382190974
0.148,0.01772721632390317
0.149,0.012861029079233298
0.15,0.008084750624243362
0.151,0.004732924164214157
0.152,-0.008148482943573244
0.153,-0.0002039837398736949
0.154,-0.0015491557862277548
0.155,-0.016382931459968365
0.156,0.002494362474695363
0.157,-0.016664916228186503
0.158,-0.03206579326694604
0.159,-0.0036329177424251173
0.16,-0.003805985070732624
0.161,0.029950942021158774
0.162,0.04362029291570753
0.163,0.025077895544323003
0.164,0.03767846946400662
0.165,0.025248362113135
0.166,0.024581385498132637
0.167,0.03337507951838291
0.168,0.010774666936959516
0.169,0.0030741498337993134
0.17,-0.0025954139031490885
0.171,-0.006170175924114681
0.172,-0.0014001939380305032
0.173,0.0016036293933282004
0.174,-0.000994773249856364
0.175,-0.000249819145676693
0.176,-0.015316034256957677
0.177,-0.0061510139360800575
0.178,-0.022082877176165756
0.179,0.017719243464163
0.18,0.012913064368109638
0.181,0.01422363076795646
0.182,0.022040071042045972
0.183,0.03882364778671062
0.184,0.026523828696548325
0.185,0.028973847098750595
0.186,0.021805987859441878
0.187,0.014391224149535288
0.188,0.0054725078382386605
0.189,-0.0038255330392861662
0.19,0.0025455368831550566
0.191,0.011262396633947493
0.192,0.002221765592657665
0.193,-0.013555752439328835
0.194,-0.0013208280956162194
0.195,-0.003959918282593877
0.196,-0.023576554832019207
0.197,-0.018441520308717374
0.198,-0.018147130200177317
0.199,-0.020205554113558247
0.2,0.010940364657176613
0.201,0.02910865234697483
0.202,0.04428460728648249
0.203,0.045241538562344065
0.204,0.015685850350132292
0.205,0.01315916980909218
0.206,0.022927030406871475
0.207,0.020959924478935577
0.208,0.019792956652117735
0.209,0.05055176946631022
0.21,0.013420584952479728
0.211,0.01475453413310445
0.212,0.010320787936930127
0.213,0.006114960634614393
0.214,-0.005506448888696433
0.215,0.0004749466917917805
0.216,-0.021768422875000845
0.217,-0.02164968700090611
0.218,-0.02288612421141899
0.219,-0.007260925348553047
0.22,0.03120471438100851
0.221,0.005523243614058655
0.222,0.0410112335415741
0.223,0.01927034197188455
0.224,0.025436651406522147
0.225,0.03411979314177586
0.226,0.01911178335694836
0.227,0.005736358629278985
0.228,0.008180617684969303
0.229,0.019511038131590917
0.23,0.0010980482510647837
0.231,0.0062529245382809935
0.232,0.0019253733509801193
0.233,-0.006226649413423123
0.234,0.019773409237583722
0.235,-8.841410131736963e-05
0.236,-0.033605041446989115
0.237,-0.0167309911154006
0.238,-0.023964977626480026
0.239,0.0011294490086196651
0.24,0.0008171079486914906
0.241,0.023732119528769954
0.242,0.03988149218698593
0.243,0.04473743731403022
0.244,0.0188347851870505
0.245,0.020566446089128325
0.246,0.01440009099182394
0.247,0.010660462264207056
0.248,0.03366753018979013
0.249,0.017443593175593353
0.25,-0.003529029548559453
0.251,0.013944431133067692
0.252,0.023368065128530766
0.253,0.011290227656132842
0.254,-0.016184139948350818
0.255,-0.010594985707842581
0.256,-1.0179162940174291e-05
0.257,-0.024998540809300872
0.258,-0.012235869796629006
0.259,0.001023863494998032
0.26,0.00014477392752589442
0.261,0.02495534731653728
0.262,0.003089414169118416
0.263,0.02650582598831417
0.264,0.028981231249807025
0.265,0.012102134233246752
0.266,0.03614150647208843
0.267,0.0035595294907516204
0.268,0.012279068580939013
0.269,0.015367042112087032
0.27,0.024157735405167764
0.271,-0.008928287446552066
0.272,0.014441990604597568
0.273,0.0017310807486854499
0.274,-0.01014302890449537
0.275,-0.00046979188871917876
0.276,-0.010027557249687688
0.277,-0.023263562722816475
0.278,-0.01531627762042983
0.279,-0.009916536338459528
0.28,0.011207637485228147
0.281,0.032829599392449484
0.282,0.052019251545204453
0.283,0.02502784493684644
0.284,0.05349284341141283
0.285,0.005713982007062055
0.286,0.01895373115321321
0.287,0.024397596403036577
0.288,0.020142203268272915
0.289,0.008484700039881983
0.29,0.008315124348841579
0.291,0.0011509521813442385
0.292,-0.002433386210637413
0.293,0.010773957888362402
0.294,0.0038906754426052542
0.295,-0.011372185713705107
0.296,-0.002375146988999644
0.297,-0.013542120987393004
0.298,-0.007240132530153143
0.299,0.0008776975042421621
0.3,0.002426585790359328
0.301,0.021249814235725792
0.302,0.04427460926323892
0.303,0.04415154796234439
0.304,0.03259459238223052
0.305,0.027048483488663705
0.306,0.03388782943581086
0.307,0.013237555272729266
0.308,0.023441347404207422
0.309,0.013327099626854674
0.31,0.008856105380296584
0.311,0.017704537993236256
0.312,0.012349467920332594
0.313,0.011047309219677828
0.314,0.014008815212270926
0.315,-0.003600316421629097
0.316,-0.00391965499001452
0.317,-0.019086598849892823
0.318,-0.011496683652260453
0.319,-0.006090395527945826
0.32,0.012315338632462099
0.321,0.03343125289293563
0.322,0.029246737066932187
0.323,0.05959819920978648
0.324,0.02336912388353546
0.325,0.014358218912988151
0.326,0.033316388386557164
0.327,0.02769319684522778
0.328,0.024834071863797172
0.329,0.022254178489084932
0.33,0.011531341864902313
0.331,-0.0016356893312016538
0.332,0.005472625448974416
0.333,-0.003240940492892614
0.334,0.0113228743659972
0.335,-0.004664094827895662
0.336,-0.01837814110346213
0.337,-0.018582594579453982
0.338,-0.009994660145570641
0.339,-0.00981266283860752
0.34,0.0037358957054860827
0.341,0.0305284462599838
0.342,0.040489669770649786
0.343,0.03421512134218253
0.344,0.029328305599808018
0.345,0.029429157521196438
0.346,0.00786214933041027
0.347,0.0063088030834933025
0.348,0.012014458073998577
0.349,0.014441431990910882
0.35,0.015367216729039833
0.351,0.02269389725371719
0.352,0.01389380387629829
0.353,0.002533064035340288
0.354,0.001982430462912056
0.355,-0.012618758486846989
0.356,-0.009709105792802604
0.357,-0.017656991448187734
0.358,-0.010299323705632961
0.359,-0.01185112921423051
0.36,0.01774729236822542
0.361,0.04401381875590277
0.362,0.037546383858400346
0.363,0.04389477529243441
0.364,0.041532355133462505
0.365,0.02368779946971676
0.366,0.025174380983951868
0.367,0.02109894353709993
0.368,0.02076435316078669
0.369,0.009433608653347143
0.37,0.01309015480612113
0.371,0.013506336908416555
0.372,0.020413767473078718
0.373,0.01430938410680916
0.374,0.024287744312379067
0.375,-0.009684514662276694
0.376,-0.0002192457162436441
0.377,-0.012356368175999995
0.378,0.008951229261975606
0.379,-0.011083003039975727
0.38,0.004734496693251291
0.381,0.02326947730437621
0.382,0.017971086426482534
0.383,0.03519524832815365
0.384,0.02761380917772852
0.385,0.029777240693411304
0.386,0.026923390589890385
0.387,0.04030617658022973
0.388,0.029862351178076313
0.389,0.011964260491231579
0.39,0.004429564817250875
0.391,0.0140132700690029
0.392,-0.006733212443485753
0.393,0.02359711359587879
0.394,0.015115230885143233
0.395,-0.006138827771645015
0.396,-0.02551077375323873
0.397,-8.898703274168307e-05
0.398,-0.01353106922296485
0.399,0.009938322080123175
0.4,-0.0022533344693694535
0.401,0.0238279264025305
0.402,0.03981979742617603
0.403,0.041478963148005824
0.404,0.031259879673080616
0.405,0.03505623870257904
0.406,0.01338309907465095
0.407,0.02067317989359997
0.408,0.022112607725373726
0.409,0.02342825409713095
0.41,0.021079457160758444
0.411,-0.0016037195276070136
0.412,-0.008324374805391818
0.413,0.018605963724152144
0.414,0.007189659715798512
0.415,-0.008387228286718455
0.416,0.007675816098334249
0.417,-0.011928225081919461
0.418,-5.094696452785999e-05
0.419,-0.0012238935693886736
0.42,0.0348381927930054
0.421,0.04791386333376251
0.422,0.03781550215880774
0.423,0.05126165296107381
0.424,0.04275008124423154
0.425,0.043048841530587335
0.426,0.014943852654361382
0.427,0.029490268654443774
0.428,0.03202566911336356
0.429,0.0012272353654726167
0.43,0.002660477477083312
0.431,-0.010220878294493536
0.432,0.004850426639668631
0.433,0.013531330260042622
0.434,0.019415784557207032
0.435,0.0003632596987947507
0.436,0.008974105125878616
0.437,-0.026363356029203654
0.438,-0.028356138427121078
0.439,-0.001933977660347615
0.44,0.018590916836556896
0.441,0.030552025476250903
0.442,0.020148208093620466
0.443,0.041171194070727155
0.444,0.023767041486581205
0.445,0.03657362808444081
0.446,0.02877240643202541
0.447,0.013743251148183496
0.448,0.01681400645438893
0.449,0.008732701003087706
0.45,0.014375430419877643
0.451,0.020230976464512787
0.452,-0.001805706520666383
0.453,0.011902379196408885
0.454,-0.00040541022562659915
0.455,-0.007802520717593854
0.456,-0.00787951622073679
0.457,-0.022412986751005122
0.458,-0.01635809073804314
0.459,-0.012857626598590209
0.46,0.034896101549393425
0.461,0.031729129452850086
0.462,0.03432182632518907
0.463,0.04469757545552468
0.464,0.03618276568816079
0.465,0.028160442349049096
0.466,0.03174025102203923
0.467,0.03120820871611317
0.468,0.01713766756462393
0.469,0.014055576296284737
0.47,0.012739544232458447
0.471,-0.011852902979200877
0.472,-0.00661468740282236
0.473,0.02101523813435915
0.474,0.021830334932258146
0.475,-0.0018817522487971777
0.476,-0.0005623354603024391
0.477,-0.008467849172564237
0.478,0.02044632678104997
0.479,0.01079491969264355
0.48,0.01444659272792439
0.481,0.022296906426617025
0.482,0.02572933188840983
0.483,0.04506602149242281
0.484,0.030215040934732776
0.485,0.016618995189022823
0.486,0.019603139183019293
0.487,0.01328682397561232
0.488,0.03978215451285111
0.489,0.029097100455861964
0.49,0.015876162377605495
0.491,0.02643045939190089
0.492,0.009774495727395381
0.493,-0.0008038786718619524
0.494,0.021073243258025027
0.495,0.006457928439089013
0.496,-0.01624127324644328
0.497,-0.013025772210133476
0.498,-0.01864182827480363
0.499,-0.01377312251811752
0.5,0.025442115362815276
0.501,0.0513919973956228
0.502,0.02813588786086106
0.503,0.049132928250076736
0.504,0.03199786028898836
0.505,0.02557786223852068
0.506,0.021208140149957574
0.507,0.01724175336320177
0.508,0.02510346381701241
0.509,0.014116861121273649
0.51,0.02131549331369091
0.511,0.008849193350671497
0.512,0.0019512378644091976
0.513,-0.004107674039883581
0.514,0.0007624710702120695
0.515,0.00617300850473837
0.516,-0.01313230802145815
0.517,-0.008389088121219322
0.518,-0.0022831687915445473
0.519,0.019042498224438483
0.52,0.005904932361684873
0.521,0.0352286876546561
0.522,0.03760684927012475
0.523,0.03547707355852328
0.524,0.054032766955052505
0.525,-0.014247290647709056
0.526,-0.015516270428836814
0.527,0.021430900416238755
0.528,0.06421144381439142
0.529,0.025268206508066996
0.53,-0.011436599726691058
0.531,-0.013924856572558358
0.532,-0.0050993757734003105
0.533,0.004318223545243072
0.534,0.031969170944432995
0.535,0.07538122656323676
0.536,0.05040924849010697
0.537,-0.018822086843149392
0.538,0.07833935540703871
0.539,0.04092196229896902
0.54,0.058730169486363545
0.541,-0.03754170836413634
0.542,0.03212857432438104
0.543,0.01280206005345487
0.544,0.009113449417444602
0.545,0.00557844610466034
0.546,-0.1064091587393668
0.547,0.025640560487019834
0.548,0.13823038264059892
0.549,0.0627613846281522
0.55,0.04995982767410681
0.551,-0.02579426005363134
0.552,0.0009096739355780219
0.553,0.01956006724568482
0.554,0.002196653836638491
0.555,-0.02356907194862034
0.556,0.04670374387164135
0.557,-0.0015339221986062253
0.558,0.020049428907968216
0.559,-0.0009402989116130168
0.56,-0.01271845074748345
0.561,0.07852474713794635
0.562,-0.03191624336468095
0.563,-0.117470303120981
0.564,0.03350836322162916
0.565,-0.0942907989273914
0.566,-0.05457653690108383
0.567,0.219649652787127
0.568,0.184131537060941
0.569,0.21750019823200573
0.57,-0.05122693037063414
0.571,-0.06322476901485638
0.572,0.010590775988924092
0.573,-0.1291622886935779
0.574,0.10765224644548337
0.575,0.009546837178589708
0.576,-0.05285229837075005
0.577,0.05821795334675493
0.578,0.006231779471685631
0.579,0.19603851797476948
0.58,-0.14375893326964162
0.581,-0.03300507524012451
0.582,0.004124611944312233
0.583,-0.09461902439339406
0.584,0.13123832918629375
0.585,0.279142435225242
0.586,0.004499132055823456
0.587,0.26472792600180456
0.588,0.38009335373252806
0.589,0.18631185923538526
0.59,-0.2321441874991503
0.591,-0.29390503759192427
0.592,-0.4154721420997359
0.593,0.2177717506119463
0.594,-0.0029325254408694938
0.595,-0.12678660931119337
0.596,0.002361006491011633
0.597,-0.32721286195464894
0.598,-0.1360661814214993
0.599,0.10133264527523397
0.6,0.2680762747158419
0.601,0.13328753246254535
0.602,0.15128982335498184
0.603,0.1630372991064295
0.604,0.14994697742695695
0.605,0.01260632175340622
0.606,-0.23841168258346693
0.607,0.20768318826668403
0.608,0.1461402072495921
0.609,0.3171755705508615
0.61,-0.19656710968939733
0.611,0.1716503005494407
0.612,-0.40570295436246906
0.613,-0.504607874286128
0.614,-0.002917583891685822
0.615,0.10105586048499635
0.616,0.3239730940128934
0.617,-0.14254947291539505
0.618,-0.20551513561582865
0.619,0.5076096319687909
0.62,-0.142394906902958
0.621,0.030622563813732087
0.622,0.08722855232892057
0.623,0.11478072934899806
0.624,0.16752357587904046
0.625,-0.44541910339595414
0.626,-0.31737294206823835
0.627,0.0696888907879815
0.628,0.4000396750842739
0.629,0.2927448467417274
0.63,-0.07290073271008603
0.631,-0.2538126369564473
0.632,-0.31330730367027076
0.633,0.09183796688829753
0.634,-0.29883738066634924
0.635,0.19187422752294628
0.636,0.25581673477578726
0.637,0.40713914052607475
0.638,0.10149708842907945
0.639,0.14822650558132933
0.64,0.004931565661752807
0.641,0.21270712864300392
0.642,0.30576067547858654
0.643,-0.2707397259683339
0.644,0.0180442075369701
0.645,-0.4868911283621743
0.646,-0.5045662899356449
0.647,-0.02515788584930753
0.648,0.7978283701460467
0.649,0.6090522638238859
0.65,0.8902257852588826
0.651,-0.7318396256426285
0.652,-0.07671438869895257
0.653,-0.04673066460305858
0.654,0.11755173849061294
0.655,0.31209633739870246
0.656,0.13619912232031095
0.657,1.2935752159736882
0.658,0.13389941228465427
0.659,-0.28950343440664533
0.66,0.06221715285053276
0.661,-1.1937745917671505
0.662,-0.33977464034942945
0.663,-0.26282865444594705
0.664,-0.043870881597674896
0.665,-0.10221208700408244
0.666,-0.5536553576277999
0.667,0.30308089505148395
0.668,0.5743221133057809
0.669,0.37603642335869614
0.67,0.39925537683265366
0.671,-0.9729712290331018
0.672,-0.5066808671175835
0.673,-0.3635923157274607
0.674,0.5962565066866939
0.675,0.9813471929068133
0.676,-0.9224702654442677
0.677,-1.198724923248665
0.678,-0.10599664281031781
0.679,0.04248996099403289
0.68,-0.03632065072585047
0.681,-0.5447907118867313
0.682,-0.30071723182865984
0.683,0.16638455544616906
0.684,0.43169665716343286
0.685,-1.337536871957378
0.686,-0.24020896036886
0.687,0.8062458025884158
0.688,0.7798610985523391
0.689,2.0483866134342588
0.69,-0.2309040987257848
0.691,-0.6892580481020144
0.692,-0.41587343331284593
0.693,-0.5953660669680204
0.694,-1.0733145157424588
0.695,-0.47702657567694684
0.696,0.11466950201178921
0.697,-0.5860043636772017
0.698,-0.45620876036410396
0.699,0.8367093871239514
0.7,-0.03197969989385919
0.701,-0.23079845555074963
0.702,0.2892294587362605
0.703,0.7924410285376143
0.704,1.601983239551661
0.705,0.31653667997410273
0.706,0.6285724561179946
0.707,0.27229022986832013
0.708,0.44898798327238026
0.709,0.8514205085954629
0.71,-0.23773238495924748
0.711,-1.9174369527431265
0.712,-1.2813446130963215
0.713,-0.20209096721990918
0.714,0.2423134207332816
0.715,0.2726881985480889
0.716,-0.04639196062524152
0.717,-0.3330731335814388
0.718,0.18044454204933147
0.719,-0.05214885722154926
0.72,1.8269281919027498
0.721,0.3115595387429857
0.722,0.11747790439876832
0.723,-0.4125577001638455
0.724,1.9314897942867408
0.725,-1.4462845521351764
0.726,-0.9256102071830221
0.727,0.4537071278155882
0.728,1.2728805101146374
0.729,1.2811889040123774
0.73,0.853318952877232
0.731,-0.926952160011642
0.732,-1.835876216951106
0.733,-0.33549067228260016
0.734,0.7466534906219534
0.735,2.015831318354353
0.736,-0.8492463746780665
0.737,1.3170180379465708
0.738,0.9585006721352106
0.739,1.5291742437463176
0.74,0.3446657480869003
0.741,-0.6942916276848121
0.742,0.39999831785585854
0.743,0.2222107897336289
0.744,0.0536105115113123
0.745,-1.2007671574304244
0.746,-1.4351375842244276
0.747,-1.170685195300103
0.748,1.7175620856195337
0.749,1.3059081151582996
0.75,-0.8454307154656977
0.751,-1.3117037858353047
0.752,-0.9812362125082446
0.753,-0.8578927935257247
0.754,0.21155566954692073
0.755,-0.2808514468786025
0.756,-0.1768674309410963
0.757,-0.47481362317985754
0.758,-0.952263629311425
0.759,2.0986819315139957
0.76,0.9391001383064639
0.761,-1.2336871911530973
0.762,-0.3583522758666059
0.763,-0.1913884726782635
0.764,0.24623879288798134
0.765,-1.77766245056364
0.766,0.32060472386475847
0.767,0.18765562655027668
0.768,0.5907345851586827
0.769,2.292860667341425
0.77,1.5620976341618589
0.771,1.6479221047754606
0.772,-1.6081262093332094
0.773,0.8552179619042357
0.774,0.23956232364401192
0.775,0.834387610569704
0.776,-1.768300169510151
0.777,-1.6057697414653491
0.778,-0.7826940592066943
0.779,0.11359624522835007
0.78,-0.8653282939553657
0.781,0.04834019024619694
0.782,0.5850921338278708
0.783,0.4608573878285884
0.784,1.2582493122582235
0.785,-0.09619958656358896
0.786,-1.1892790033990546
0.787,2.3956950042285263
0.788,1.5508027043145105
0.789,2.5706458554028813
0.79,1.6755646099445227
0.791,-0.6832613312330175
0.792,-2.5783196757166804
0.793,-1.2940943890554149
0.794,1.231285577475203
0.795,-0.5025243462207997
0.796,-0.7175960409252029
0.797,0.1432315791417792
0.798,0.7358748168959653
0.799,0.6940414109344734
0.8,0.07386813544813897
0.801,-0.20851636182850838
0.802,1.1092643572590155
0.803,0.9971090920541394
0.804,-0.09371677309022708
0.805,0.6947448786407147
0.806,-0.2860533373437042
0.807,0.03065333691307031
0.808,0.9587199200518958
0.809,0.21191479405447913
0.81,-0.7327062374085803
0.811,-0.5847330993806233
0.812,-2.4694835754558575
0.813,-0.5079287183865908
0.814,-0.6331445083158636
0.815,-0.38543780310769016
0.816,-1.8244873539717885
0.817,-0.18476523651096413
0.818,0.5794940645753743
0.819,1.6434797517666855
0.82,1.02109377234143
0.821,-0.7312611489315464
0.822,1.4772487334101934
0.823,0.5185506395644923
0.824,-0.05464546947568738
0.825,-0.9335399355747602
0.826,-1.3502442880533665
0.827,0.4026469668874392
0.828,1.5973092706679581
0.829,-0.9521792303309136
0.83,-1.2038092741698516
0.831,-1.997097427252893
0.832,-1.1606580108312368
0.833,1.0089590942972773
0.834,-0.105335431867195
0.835,0.08873167159207349
0.836,-0.21578956713450584
0.837,-0.3026934700576644
0.838,0.7075286982083443
0.839,1.8910449524384696
0.84,-0.48932184421349867
0.841,0.39352080179314425
0.842,-1.9559743386489705
0.843,-0.9417401291263076
0.844,-1.2485994355524264
0.845,0.18339618707705385
0.846,-1.477991674778844
0.847,-2.073879399438575
0.848,-0.6920748788250278
0.849,1.2300400421327022
0.85,0.5404756111957768
0.851,-0.6846881133192736
0.852,-0.5593449422083886
0.853,1.5997908394263562
0.854,0.5576324828709728
0.855,1.6512451562703487
0.856,-1.4441083497623115
0.857,-0.7286322150941484
0.858,-1.3054611656189998
0.859,0.18786429967654625
0.86,-0.18385277134098418
0.861,-0.5795119600188348
0.862,-0.6505882590088299
0.863,-1.551224669688299
0.864,-1.116113269358325
0.865,-2.7274438362196003
0.866,0.6368746908330027
0.867,0.4366164175697553
0.868,1.5242219741062257
0.869,3.4557539567150317
0.87,-0.7590607196909614
0.871,-1.8285018136167093
0.872,-1.7215159227135362
0.873,0.17642595070293393
0.874,1.0891820511442774
0.875,0.9149111584867267
0.876,2.0401894219836976
0.877,-2.727860753177804
0.878,0.5080307677591731
0.879,-0.4965402386490326
0.88,-0.8623783651812758
0.881,-1.1949298972908722
0.882,-1.2782447213858505
0.883,1.5543863671500888
0.884,0.5812647939572158
0.885,-0.4799993192553619
0.886,1.2374986049130332
0.887,-0.2828079590007392
0.888,0.9271847969391214
0.889,-0.28066807659666293
0.89,-0.45345164394239534
0.891,-0.9900940437460911
0.892,-1.1102723219000086
0.893,-0.27745076886074144
0.894,-1.3418798873948585
0.895,0.415860852501337
0.896,-0.5761586572507144
0.897,0.11465732132345328
0.898,-1.7158628539798535
0.899,0.7179818450559408
0.9,-0.8615570972371598
0.901,-0.2861432137049203
0.902,0.791747144671985
0.903,0.5644967299854518
0.904,-0.6444953623712377
0.905,-0.3269466230564538
0.906,-1.6076295824681928
0.907,1.9136953953709512
0.908,1.4371590057538806
0.909,2.1856324361743003
0.91,-0.9381641490448352
0.911,-2.1772326476069095
0.912,-2.318741827216117
0.913,0.16704645438662305
0.914,-0.6552239869207773
0.915,0.48392085430742166
0.916,-0.6716067307591672
0.917,-1.7778323954882531
0.918,0.18903125818476046
0.919,-0.048271006305137386
0.92,0.7842195307728872
0.921,-0.6824110941391792
0.922,1.1885091651452788
0.923,0.2013421818551051
0.924,-0.365054778644985
0.925,-0.27398048495738425
0.926,0.08611736922109132
0.927,0.16037610009451667
0.928,0.3439596939586057
0.929,-0.8622906854365866
0.93,-1.1816146057380696
0.931,-2.040350800863102
0.932,-1.148474971964513
0.933,-0.46767028303746216
0.934,1.1734177055396096
0.935,-0.028993987260912967
0.936,0.1803944531605996
0.937,1.4490971442815792
0.938,1.1813851630863246
0.939,0.8976557446092663
0.94,-0.04201270802395182
0.941,-0.5520115959148582
0.942,-0.9034135273941208
0.943,-0.7654988339846237
0.944,-0.11256827907934339
0.945,-1.4257202110213003
0.946,-2.1151581821010583
0.947,1.5316122352265522
0.948,1.337470132476995
0.949,-0.16064609926448073
0.95,-0.4110286085026022
0.951,-0.7545146195752932
0.952,0.7790821104458667
0.953,-0.5285192096533472
0.954,1.638145020471315
0.955,1.7234062783705546
0.956,-0.33916124060446734
0.957,-0.08122057005773614
0.958,-0.41065980140214525
0.959,0.20150935915232687
0.96,-0.1261422674886534
0.961,0.005367046289834601
0.962,0.28773245188581215
0.963,-1.0451557269203295
0.964,-2.1826869493913996
0.965,-0.9280618181995999
0.966,-0.32406330992866145
0.967,0.7623370391596496
0.968,1.2603775473952146
0.969,1.466292478172335
0.97,1.469937563814677
0.971,-0.24454647445305194
0.972,-0.7168495253654553
0.973,-0.18205748735300095
0.974,0.35764471453596425
0.975,1.2715890795649827
0.976,-0.48907979800052337
0.977,-0.41005707696526417
0.978,-0.42145782518562536
0.979,0.8025962988905176
0.98,1.151831501057404
0.981,-0.08463404069221786
0.982,-0.2086202124874911
0.983,-0.033385348861490693
0.984,-1.773868011405664
0.985,0.14018543644678555
0.986,0.056201211713887055
0.987,1.1154170191976498
0.988,1.041057535173909
0.989,0.9860328973615449
0.99,-0.11525233295826799
0.991,-0.12652363570683722
0.992,-1.0562176199311135
0.993,1.0390744993084797
0.994,0.2655533876727364
0.995,-1.042518828461204
0.996,-0.5894452260782665
0.997,-0.7836126119604081
0.998,-1.3129935257852647
0.999,1.2626857186676788
1.0,0.6159752013869875
1.001,0.4034052894321305
1.002,0.2971847404666751
1.003,-0.5183617784728486
1.004,-0.16659597523264272
1.005,0.3015020747584471
1.006,-0.6907823810751742
1.007,-0.9319423805440223
1.008,0.8862953914270175
1.009,0.6090670458758817
1.01,-0.1748732317792586
1.011,-0.6096766653462394
1.012,-0.5925330786210071
1.013,-0.25258014238974635
1.014,0.671414274216844
1.015,-0.884128980401425
1.016,0.06952682711984813
1.017,0.3364321162912409
1.018,-0.24767716855059457
1.019,-0.1937263405406784
1.02,0.052526558906958884
1.021,-0.10341616226384509
1.022,0.6052400302263642
1.023,-0.10608013273249403
1.024,-0.5173875890355255
1.025,-0.7553125941388792
1.026,0.13974222290323585
1.027,0.11529356959122687
1.028,0.48329065952581246
1.029,0.3262330778017806
1.03,0.30583792197846343
1.031,-1.1821058739328743
1.032,-0.03626666919924124
1.033,0.02956541781941286
1.034,0.2298330220288059
1.035,1.4110041585876154
1.036,-0.36154159662971935
1.037,0.04816485857282567
1.038,-0.08399981610644469
1.039,0.9132997727737345
1.04,0.9944170228356723
1.041,0.7071551232311144
1.042,0.4475905703684443
1.043,-0.21682124908129097
1.044,-0.5083748367946644
1.045,-1.262048617360498
1.046,0.35712224569894546
1.047,0.2273407256053162
1.048,0.3531222076843937
1.049,1.0126809824950487
1.05,-0.39624709792538365
1.051,-0.23484966111843025
1.052,-0.32499324760416937
1.053,0.40462507121852587
1.054,0.37410226954225245
1.055,-0.25532580331150173
1.056,0.09396083898160354
1.057,0.43819583860882966
1.058,0.1666648915759254
1.059,0.42370338304783123
1.06,-0.3864822649206347
1.061,-0.24499173711178923
1.062,-0.4115566676514132
1.063,0.045179138492985396
1.064,-0.26754436772928386
1.065,-0.16563296861608362
1.066,0.12041336935065504
1.067,0.476388617585515
1.068,0.7183162613793938
1.069,0.2846509957274496
1.07,0.15430601447539394
1.071,-0.35479020814854983
1.072,-0.27612311635510817
1.073,-0.04125470956262281
1.074,-0.0726722797644876
1.075,-0.5035936282635709
1.076,-0.34035311881321895
1.077,-0.10107969640415883
1.078,-0.37703186033046304
1.079,0.023863527551018584
1.08,0.42014624411870105
1.081,0.130841536363324
1.082,0.3441126556314871
1.083,0.12482949900353665
1.084,0.2562244922147896
1.085,-0.27398197817705905
1.086,-0.14166857248763062
1.087,-0.3306492320100299
1.088,0.8092582306224102
1.089,0.7838137833958734
1.09,-0.06085913465132648
1.091,-0.30535182011438566
1.092,-0.4170601961794261
1.093,-0.0067182579709982974
1.094,0.24507444698768163
1.095,-0.429420682986021
1.096,-0.0889923947936547
1.097,-0.20266219401858787
1.098,0.03914741393089935
1.099,0.17608602945538726
1.1,0.03996802688148927
1.101,-0.0030015936455035364
1.102,0.07161124580300658
1.103,0.29064512586268354
1.104,0.14294714784893717
1.105,-0.006783727565218656
1.106,-0.2089308244033069
1.107,0.09266991584735781
1.108,0.43085005974379853
1.109,0.22975236563353324
1.11,0.03923639459113344
1.111,0.0030680621205758634
1.112,-0.08638397419808218
1.113,-0.0756801171152362
1.114,-0.06432391366281144
1.115,-0.358002204119679
1.116,-0.0505002915051901
1.117,-0.04901004366324738
1.118,0.14285923919694674
1.119,0.1311339711947952
1.12,0.08627830394140565
1.121,-0.11711603108052022
1.122,-0.018846243818856186
1.123,0.11683892846451834
1.124,0.21114655956451372
1.125,-0.09489886188264393
1.126,-0.028545906509566316
1.127,0.13075236342692645
1.128,0.053155461800742626
1.129,0.1329745276929756
1.13,-0.11220741773725318
1.131,-0.06446553923358427
1.132,-0.08616381875825814
1.133,0.023085357164493357
1.134,-0.006240370849804638
1.135,0.11505132322285919
1.136,0.19152356228301312
1.137,-0.05998159705519357
1.138,0.049007468605561426
1.139,0.10379932907557488
1.14,0.10515616192253023
1.141,0.004331209893543162
1.142,-0.15935844441993796
1.143,0.1026655146041408
1.144,0.024742617450552486
1.145,-0.1573027564527137
1.146,-0.08681128980819905
1.147,0.098512061905089
1.148,0.18067226568587005
1.149,0.11749211557692843
1.15,-0.005930622006933003
1.151,-0.054600604142446926
1.152,-0.034896716762523664
1.153,0.06002846881304754
1.154,0.030645861675714904
1.155,0.009690701502133216
1.156,0.032103528983814966
1.157,0.016386889796317743
1.158,0.06361024307821127
1.159,-0.009994918955359328
1.16,-0.015200432813155092
1.161,0.007986636261436954
1.162,0.007343469068316556
1.163,-0.029357739542328638
1.164,0.012736865193669615
1.165,-0.007192957863417001
1.166,0.038885616670190304
1.167,0.059357781782111624
1.168,0.03410659328518718
1.169,0.08651988766684117
1.17,0.073624485780882
1.171,0.0038079457508262207
1.172,-0.008701551534756059
1.173,0.04887602933433073
1.174,-0.009995218771373375
1.175,0.0003227246933856717
1.176,-0.02627966507177185
1.177,-0.004185151707489957
1.178,-0.017549938995375148
1.179,-0.014966279649742632
1.18,0.00829762458961869
1.181,0.039528707831258114
1.182,0.042613653572102936
1.183,0.026797413336292215
1.184,0.023944628838672863
1.185,0.03200967727026509
1.186,0.020003266721799595
1.187,0.02371670939047673
1.188,0.03059937735117798
1.189,0.013733817341777452
1.19,0.017142983391037557
1.191,-0.005881861396713681
1.192,0.0016492121228185571
1.193,0.009462954698576966
1.194,-0.00972217721157409
1.195,0.004980597015836689
1.196,-0.006875477615346055
1.197,-0.006338217433529629
1.198,-0.008324567967280046
1.199,0.012972394700236506
1.2,0.01666250988199533
1.201,0.027195429145739643
1.202,0.042606622646407535
1.203,0.04800689820721965
1.204,0.037762363757352244
1.205,0.03069534754050049
1.206,0.01844953512943203
1.207,0.016826566586652072
1.208,0.008190647260748314
1.209,0.0370351246670262
1.21,0.002728605951862398
1.211,0.0038660135083772836
1.212,0.0009334884170829321
1.213,0.015827659609482726
1.214,0.0019146655840757334
1.215,0.012521119468018475
1.216,-0.01367613270686351
1.217,-0.009452140258242245
1.218,-0.019406090436327152
1.219,0.02029211834121938
1.22,0.0030428387181878013
1.221,0.03409517284833252
1.222,0.04722782250052132
1.223,0.04621724160630175
1.224,0.03492514757764355
1.225,0.02849441490223706
1.226,0.025409689922374683
1.227,0.02148661263391946
1.228,0.03135548350046645
1.229,0.04114351684712934
1.23,0.009090189074372857
1.231,-0.003406154884058382
1.232,0.006730492609241269
1.233,0.03217020562276617
1.234,-0.003678940724939154
1.235,0.01592745736417808
1.236,0.009327322028342702
1.237,-0.01828747235542172
1.238,-0.005873343769293788
1.239,0.01461299385183068
1.24,0.010614903087883643
1.241,0.028447478587976055
1.242,0.03455852167346341
1.243,0.03141592295425766
1.244,0.02976845268533592
1.245,0.01703538937790542
1.246,0.024793548047391114
1.247,0.014737008361638847
1.248,0.023533631179458277
1.249,0.002957383656083082
1.25,0.017450937945875843
1.251,0.018103170497624874
1.252,-0.012849058230854317
1.253,0.00958764404451612
1.254,0.016107443846047623
1.255,-0.013088187171235012
1.256,0.008746958077524673
1.257,-0.009091491027631467
1.258,-0.019144393922755343
1.259,-0.00276077169410505
1.26,0.019456335241473645
1.261,0.030709217772373308
1.262,0.04522777035517009
1.263,0.03182063379796825
1.264,0.037417717598617714
1.265,0.014599531961839489
1.266,0.02280134321172486
1.267,0.012857562208528062
1.268,0.013299379996155276
1.269,0.030335190562811393
1.27,0.02451216878039172
1.271,0.015315209229006591
1.272,-0.004379865192734317
1.273,0.0021369771654988386
1.274,0.015414735234816315
1.275,-0.00012258059340527344
1.276,0.01466558175127175
1.277,-0.009898423746810048
1.278,-0.010724676427602551
1.279,-0.00584610703740044
1.28,0.014655646396506995
1.281,0.027870671401381688
1.282,0.04636653974670241
1.283,0.05003867405907306
1.284,0.02730753650329784
1.285,0.01486671171109698
1.286,0.004992958956940461
1.287,0.0264170072867475
1.288,0.0090605172745352
1.289,-0.004116092693346616
1.29,0.016922460551327043
1.291,0.03359048463014462
1.292,0.005918271280360515
1.293,0.013120745859543552
1.294,0.0035358887921626975
1.295,-0.0030957467593589576
1.296,9.501522932127762e-05
1.297,-0.017303316970753845
1.298,-0.010541145254421165
1.299,-0.00010879452568563971
1.3,0.006067575258543535
1.301,0.03874311037688791
1.302,0.03696224923401658
1.303,0.032339671860229444
1.304,0.039957082892315796
1.305,0.018617997605797867
1.306,0.02305954531534974
1.307,0.020667712032620404
1.308,0.030374035958136363
1.309,0.021579783568215993
1.31,0.012205486022310965
1.311,0.016256328716108034
1.312,0.01929832938601812
1.313,0.009730313980888975
1.314,0.0022365955833827268
1.315,-0.01581063491991823
1.316,-0.020333203067468972
1.317,-0.018040027792547136
1.318,-0.01989828993445032
1.319,-0.0057844733432524525
1.32,0.012725105202863353
1.321,0.03352885656453405
1.322,0.037415219239348416
1.323,0.04416962029403914
1.324,0.03464333129224156
1.325,0.007253738842979111
1.326,0.012789233393048544
1.327,0.018722008652780404
1.328,0.006821245821384873
1.329,0.022234334349167807
1.33,0.027164644726658634
1.331,0.019666802145134457
1.332,0.0026614823311899597
1.333,0.018458270804158353
1.334,0.003017685985004067
1.335,-0.006666044630669825
1.336,-0.01641985760412415
1.337,-0.01861709220959845
1.338,-0.01829039860947511
1.339,-0.0028169063650935397
1.34,0.013157193878945263
1.341,0.02765439588430353
1.342,0.041880756086685775
1.343,0.0506013968436235
1.344,0.04288362377542532
1.345,0.011548087304940021
1.346,-0.003968792156697633
1.347,0.028893086736707888
1.348,0.004635583411204069
1.349,0.013372746088033623
1.35,-0.0004594627035513238
1.351,-0.0111569093109548
1.352,0.00959343223179418
1.353,0.010524639613124689
1.354,-0.00485282715915251
1.355,-0.029825153346715563
1.356,-0.016368629696643967
1.357,-0.012295516071569392
1.358,-0.029819711221135643
1.359,-0.003310236618964922
1.36,0.010774788442955506
1.361,0.032792485854738436
1.362,0.03808201777744606
1.363,0.02833829114037891
1.364,0.044727052864492474
1.365,0.02418423788626338
1.366,0.020669053854237538
1.367,0.009588103752976805
1.368,0.0132416615004578
1.369,0.006141706719348228
1.37,0.008880763086900435
1.371,0.023347760615351626
1.372,-0.01017319886418205
1.373,-0.013836289237925426
1.374,0.014989448220951688
1.375,-0.0066432654771995964
1.376,-0.018232975002197054
1.377,-0.0064513335142143795
1.378,-0.021724334791771324
1.379,0.012477920124649794
1.38,0.017068049389021716
1.381,0.02148060772396702
1.382,0.05781869665182692
1.383,0.03137048350028755
1.384,0.03954019778307161
1.385,0.028119621951127875
1.386,0.033315933273292624
1.387,0.03389157732705264
1.388,0.017349470694513286
1.389,0.006809765814960728
1.39,0.014563423536181291
1.391,-0.001193729403960524
1.392,0.023031705878729044
1.393,0.003015973551006093
1.394,-0.004024898101880621
1.395,-0.0033533739084667964
1.396,-0.025664377188974546
1.397,-0.02721810355543963
1.398,-0.004316336886084144
1.399,-0.013004127842982268
1.4,-0.000834036344787377
1.401,0.031071825308648916
1.402,0.047447527540505685
1.403,0.04396133513613609
1.404,0.04142319037486606
1.405,0.016901517202551234
1.406,0.005422490475593169
1.407,0.03263118580320744
1.408,0.0131433242395643
1.409,0.011175619620817628
1.41,0.022584962980040382
1.411,0.010484360377575302
1.412,0.006794665999399969
1.413,0.022637919801706846
1.414,-0.007470265187949454
1.415,0.0034141499674981736
1.416,-0.01228772908222098
1.417,-0.015481455748650449
1.418,-0.0017018740335295324
1.419,-0.0020235744210456534
1.42,0.014350625112296908
1.421,0.03576230213802292
1.422,0.0312722321954667
1.423,0.027710323744608523
1.424,0.020344587234955976
1.425,0.004135217503358315
1.426,0.039531335784781504
1.427,0.005913787387579205
1.428,0.013484964959626753
1.429,0.010242554550193433
1.43,0.01170318789171115
1.431,0.012404895743793916
1.432,0.01016535287644303
1.433,-0.005518679540384837
1.434,-0.0033827303498965237
1.435,-0.003715508553411828
1.436,-0.01602245234948246
1.437,-0.002772225137176197
1.438,-0.012755730334956132
1.439,-0.00043269245847337226
1.44,0.014916324306538558
1.441,0.03609120268755965
1.442,0.03605060089422334
1.443,0.022452119644201164
1.444,0.03410697271104171
1.445,0.01660202621540503
1.446,0.012999309589348786
1.447,0.02212512574861585
1.448,0.027395351452548275
1.449,0.012537830319405705
1.45,0.011031287938685392
1.451,0.02058292229792038
1.452,0.0032808137950522632
1.453,0.0256410072107284
1.454,0.0032550841284156255
1.455,-0.024838012658931315
1.456,-0.006691777330562958
1.457,-0.015724322497015848
1.458,-0.0054587483010766005
1.459,-0.0017410208844954173
1.46,0.006211022070598124
1.461,0.011420988867643013
1.462,0.03145709913988375
1.463,0.026221622737411444
1.464,0.02361069106584079
1.465,0.02830665824894687
1.466,0.03428924965120396
1.467,0.019512380679905968
1.468,0.002357324030528728
1.469,0.016074231713199032
1.47,0.019211822200547894
1.471,-0.0032350451497071093
1.472,-0.0011654146241249549
1.473,-0.0009280004589290892
1.474,-0.01094858496765677
1.475,-0.001447698785977435
1.476,-0.01613531914527652
1.477,-0.01604174959548538
1.478,-0.02793288638846776
1.479,-0.013549624755665901
1.48,0.01411667204176784
1.481,0.019232402667780674
1.482,0.05011322208698556
1.483,0.03002620868946961
1.484,0.030958009993987033
1.485,0.03104151610658156
1.486,0.0027007797778531052
1.487,-0.002748688814625519
1.488,-0.0016471706378979063
1.489,0.02354679036677455
1.49,0.001019179134175176
1.491,0.027736541481343857
1.492,-0.006176440224229027
1.493,6.142585218225916e-05
1.494,0.011611811941816296
1.495,0.011420261558238713
1.496,0.004978557979573181
1.497,-0.008864525259926561
1.498,-0.00952892376071933
1.499,-0.003961825017589692
1.5,0.013963950649163927
1.501,0.016735895162216838
1.502,0.023948152123299135
1.503,0.03327492513534217
1.504,0.026294959992548255
1.505,0.016468517631553395
1.506,0.02313305131412669
1.507,0.02369674306002903
1.508,0.013777307519577783
1.509,0.024979653316163298
1.51,-0.005596167804769641
1.511,-0.0004995211066345286
1.512,-0.008420097914919482
1.513,-0.02116779660371414
1.514,-0.005354867925132997
1.515,-0.010577343565829412
1.516,-0.0012216066334563118
1.517,-0.015360119562963237
1.518,-0.030731886109973076
1.519,0.007932944860562334
1.52,0.017669375665599726
1.521,0.027347015861883435
1.522,0.02914317671385256
1.523,0.02299174689592659
1.524,0.023551803386868044
1.525,0.031164947196350372
1.526,0.03429130328814627
1.527,0.0288519927325209
1.528,0.007280216573395433
1.529,-0.0017167414592688139
1.53,0.006504276982779984
1.531,-0.016973015606209153
1.532,0.001253722960805231
1.533,-0.004704917223727446
1.534,-0.009915265887594407
1.535,-0.026034115248819295
1.536,-0.011947692802441649
1.537,-0.02772320573033146
1.538,-0.032917515685437757
1.539,-0.040059298345905714
1.54,0.004454830889967767
1.541,0.03851913525484751
1.542,0.0472908321312788
1.543,0.02728504339618252
1.544,0.020521264252486647
1.545,0.02423436687368351
1.546,0.004730401352346745
1.547,0.015705946763167288
1.548,0.019097641289189008
1.549,0.021016552825841472
1.55,0.0033613240631319495
1.551,-0.0020582439344108655
1.552,-0.011490996723012594
1.553,-0.0122312411627289
1.554,-0.008253563030369322
1.555,-0.00714762712378942
1.556,-0.008682366986319797
1.557,-0.031162825375954
1.558,-0.007026616718181014
1.559,-0.014783381234910842
1.56,0.0037805266668045055
1.561,0.01258841346196492
1.562,0.005699442259205361
1.563,0.03995976132908817
1.564,0.03317482437528898
1.565,0.015996051053442442
1.566,0.014646569611259503
1.567,0.017109533640595413
1.568,-0.004926796739389646
1.569,0.0027182293860057937
1.57,0.011566762068760825
1.571,-0.013303432722760971
1.572,-0.0005149034694250784
1.573,-0.0182678448546066
1.574,-0.0020643380956592607
1.575,-0.01191783281738679
1.576,-0.034709936574243434
1.577,-0.012224314224487286
1.578,-0.030040354177388907
1.579,-0.020915867065397276
1.58,0.005258435276206644
1.581,0.030805191240154628
1.582,0.019041660598738817
1.583,0.030993888860954662
1.584,0.029352085112216514
1.585,0.024997671747370727
1.586,0.014998124026361135
1.587,0.007536668731521614
1.588,0.001679327546622084
1.589,0.008126527819854486
1.59,-0.007841174468810894
1.591,-0.03071817275581489
1.592,0.00017075865631723496
1.593,0.003592740488693057
1.594,-0.031102765263296875
1.595,-0.022403747257156034
1.596,-0.013112314601436286
1.597,-0.004042205801022665
1.598,-0.023232165345878797
1.599,-0.020839244755527425
1.6,0.0006777002602394446
1.601,0.03232129997096843
1.602,0.02199375434870677
1.603,0.02163848961750825
1.604,0.01948960883173217
1.605,0.007786260813592603
1.606,0.013713152786153815
1.607,0.02670628544589409
1.608,0.012438391465061285
1.609,0.003993740847242461
1.61,-0.0007858896036497846
1.611,-0.01788474536037012
1.612,0.00388791490497023
1.613,-0.006973494843338932
1.614,-0.010026923805110976
1.615,0.018875785556896174
1.616,-0.01706534152878854
1.617,-0.032884245228224515
1.618,-0.02845301078013818
1.619,-0.0028242461506147454
1.62,0.002889728036393086
1.621,0.0034399650786333755
1.622,0.03689574705466727
1.623,0.022198885548798383
1.624,0.04229979635220828
1.625,0.02736966257170318
1.626,0.007262728835982702
1.627,0.022519028459476096
1.628,0.00913538630171479
1.629,0.014294116231399962
1.63,0.006228528687233647
1.631,-0.011467549908993712
1.632,-0.012129948120955181
1.633,0.0033531001950153332
1.634,-0.012321378604447012
1.635,-0.017843388204616544
1.636,-0.03035582002252539
1.637,-0.02188217518295177
1.638,-0.004316121560992828
1.639,-0.02573607047252007
1.64,0.001247080930320093
1.641,0.031192716040907516
1.642,0.026154715286498695
1.643,0.032651624394887654
1.644,0.012190374548320277
1.645,0.020099658011646915
1.646,0.009111826826808483
1.647,0.018813405716786753
1.648,0.01957785453812623
1.649,0.03090910330944897
1.65,0.006424546913699433
1.651,-0.0004990755924003595
1.652,-0.004503729571908494
1.653,-0.011231358413679195
1.654,-0.006342036392298291
1.655,-0.01751422657953975
1.656,-0.019873350058158913
1.657,-0.013695610083749461
1.658,-0.03576026733934232
1.659,-0.004415475306861299
1.66,0.01342247147106619
1.661,0.01513621635062
1.662,0.004978930719968442
1.663,0.02129599912762543
1.664,0.03503053259455337
1.665,0.014834151126729424
1.666,0.0002364619531813831
1.667,0.0031545441143517013
1.668,0.015356357299879535
1.669,0.00972694370776601
1.67,-0.002514983871007832
1.671,-0.008179177456033897
1.672,-0.011119062497946667
1.673,-0.017677716911865086
1.674,0.005672954003707197
1.675,-0.018537351038351208
1.676,-0.010140311605931679
1.677,-0.012412362360399385
1.678,-0.016465667912540685
1.679,-0.020884394341716177
1.68,0.003534698994498647
1.681,0.01532103311866672
1.682,0.01640656161207179
1.683,0.029863927951026263
1.684,0.009516323657097866
1.685,0.026185781057125004
1.686,0.004829490387431955
1.687,0.009460095309508079
1.688,0.009029270192575762
1.689,0.0009168244272996329
1.69,0.004987575648396065
1.691,-0.010013632338855969
1.692,0.0007578692624288915
1.693,-0.02266699216621259
1.694,-0.009970542307099496
1.695,0.0033216561954066658
1.696,-0.03306864706935961
1.697,-0.03515635647716332
1.698,-0.02206302649607944
1.699,-0.01552564302352917
1.7,0.002250490602148571
1.701,0.019701715825193356
1.702,0.03103771674495902
1.703,0.03696432456789697
1.704,0.024651971002545892
1.705,0.01114354801615661
1.706,0.015448614962505283
1.707,0.02569461256471576
1.708,0.0041174310275982565
1.709,-0.006991956644619199
1.71,0.009438994461507517
1.711,-0.007220766706428818
1.712,-0.030434065222626545
1.713,-0.001485148725821184
1.714,-0.01733969150641981
1.715,-0.01772493690111354
1.716,-0.02049739686729805
1.717,-0.02722566971917374
1.718,-0.020859237290648834
1.719,-0.022427863071657925
1.72,0.003123823684734592
1.721,0.011463071127890214
1.722,0.0313274202041068
1.723,0.031269936949246846
1.724,0.01044845866705818
1.725,0.02366513493992909
1.726,0.0026125633444385454
1.727,0.01402582434015061
1.728,0.008366230730220872
1.729,0.02038490090428305
1.73,-0.004616603025615794
1.731,-0.010260110038129974
1.732,-0.009651406206194882
1.733,-0.013740854421046984
1.734,-0.0047365297696946584
1.735,-0.033732094688372044
1.736,-0.03510325161148111
1.737,-0.0405577630388326
1.738,-0.019199584245949322
1.739,-0.0017156050804502665
1.74,-0.003800297999066049
1.741,0.011621919738522071
1.742,0.02389160933553216
1.743,0.03598699334533348
1.744,0.009781441114572539
1.745,0.01444131159057521
1.746,0.016976665951118172
1.747,0.010208866443055452
1.748,0.00584204133239627
1.749,0.011266584470689253
1.75,-0.030161012230796543
1.751,-0.0007347378349074514
1.752,-0.016744316133692032
1.753,-0.02976153226638066
1.754,-0.00836986439788415
1.755,-0.00457813700493249
1.756,-0.026686436017752203
1.757,-0.021096298752484165
1.758,-0.013324972289154451
1.759,-0.00641747062831393
1.76,0.01289918411420978
1.761,0.01998698015319586
1.762,0.02320121864834939
1.763,0.007604575682294751
1.764,0.01585060262766573
1.765,0.002881645075591955
1.766,0.02819084294857454
1.767,0.0026960322353054705
1.768,0.004435480985936061
1.769,0.006028429832001917
1.77,-0.003434964897291894
1.771,0.008694969364521013
1.772,-0.017171850242143467
1.773,-0.01025067074498908
1.774,-0.02164788029208296
1.775,-0.03225597101933655
1.776,-0.03217040200679757
1.777,-0.0317359065650042
1.778,-0.03448100299694055
1.779,-0.027230779728271405
1.78,-0.018303316835159244
1.781,0.010995244871828534
1.782,0.006660552876382803
1.783,0.03048594942339848
1.784,0.018397065276576294
1.785,-0.003999676850453271
1.786,0.002651341618837703
1.787,-0.0038043649581363578
1.788,0.0056577815038785645
1.789,0.013180981376891554
1.79,-0.023359513229989304
1.791,-0.007841776820515128
1.792,-0.013282875935542747
1.793,-0.006219228055078167
1.794,-0.012826781227459595
1.795,-0.02731069923822544
1.796,-0.02997819479467563
1.797,-0.040060423218075764
1.798,-0.020162214526393357
1.799,-0.020827435099486376
1.8,0.014038109114231982
1.801,0.01048636563364861
1.802,0.013890693445355696
1.803,0.007015584286605033
1.804,-0.0011910540574477935
1.805,-0.005997507194334686
1.806,0.007683054725405127
1.807,0.0080731494900237
1.808,-0.01407682352832448
1.809,0.007996256679200918
1.81,-0.010168650303241626
1.811,-0.008254004025041055
1.812,0.003711119083102575
1.813,-0.004693414975075132
1.814,-0.018372870806799432
1.815,-0.029431379907128442
1.816,-0.049033893509439014
1.817,-0.040019411639679675
1.818,-0.03376092925133883
1.819,-0.031639312377585674
1.82,-0.00701295492032362
1.821,0.011135285690650275
1.822,0.018000377561275774
1.823,0.01492726442391
1.824,0.01780183977623187
1.825,0.013538599991047572
1.826,-0.006616467816565778
1.827,0.01637135385404992
1.828,2.5731596256874795e-05
1.829,-0.0014886996062380801
1.83,0.0010214388399106984
1.831,-0.008112032102959554
1.832,-0.0036015712292393224
1.833,-0.01151200538408185
1.834,-0.022532962946646876
1.835,-0.0176250306817075
1.836,-0.039673190698075324
1.837,-0.03246204880727039
1.838,-0.03270126991897036
1.839,-0.024567602004079266
1.84,-0.007704247310531184
1.841,-0.0091697786092956
1.842,0.014044067769210269
1.843,0.021638555743215798
1.844,0.01699711305678646
1.845,-0.0018738597064366473
1.846,0.016228744246260415
1.847,-0.007115128330043812
1.848,0.009991224777532786
1.849,0.0018802399341454586
1.85,-0.013237031503344071
1.851,0.006595319871955591
1.852,-0.02578244161533024
1.853,-0.005904378586430043
1.854,-0.007114974331112467
1.855,-0.028658008830186984
1.856,-0.015022546395375449
1.857,-0.03675890922048644
1.858,-0.03019235684199217
1.859,-0.020593060554892535
1.86,-0.008471324988969364
1.861,0.01704791185270591
1.862,0.026757806499818973
1.863,0.0025168771363267457
1.864,0.027734531906967938
1.865,-0.008928955118188076
1.866,0.013190696170096161
1.867,0.012107737549160617
1.868,-0.011318445253164281
1.869,-0.007204777533011293
1.87,-0.018536230799615257
1.871,-0.014010917304969325
1.872,-0.017629823824596328
1.873,-0.008002209922594473
1.874,-0.004720089713464365
1.875,-0.008696830539401592
1.876,-0.03527022132069063
1.877,-0.03705148172993538
1.878,-0.05061396874404951
1.879,-0.03195474557548429
1.88,0.001821042994230473
1.881,0.02439695428397297
1.882,0.005781262675273829
1.883,0.013379924029978353
1.884,0.013729981793140387
1.885,0.009801028843451624
1.886,-0.0059268034960312625
1.887,0.004385841758379964
1.888,-0.005842079261522591
1.889,-0.003935509705671722
1.89,-0.002710139014689547
1.891,-0.012490724255389897
1.892,-0.01960601994774789
1.893,-0.017587030991482865
1.894,-0.019398359661710902
1.895,-0.027044764572057785
1.896,-0.03292691758333616
1.897,-0.01966263501193667
1.898,-0.028859661438602493
1.899,-0.02753954010966235
1.9,-0.001546041786195333
1.901,0.004215400625565429
1.902,0.029169051656602638
1.903,0.02231462928293877
1.904,0.012235247953597884
1.905,0.010791408272305696
1.906,-0.01422411389603419
1.907,-0.011806430859011391
1.908,-0.01372632431332883
1.909,-0.003044343054529635
1.91,0.008469985374073652
1.911,0.009076477685437769
1.912,-0.009542618126320207
1.913,-0.012162845156766322
1.914,-0.03720505080356013
1.915,-0.029450519686177894
1.916,-0.03889530350159694
1.917,-0.04253547092481089
1.918,-0.036827559120069187
1.919,-0.029982282107079154
1.92,-0.028984595316188928
1.921,0.014357317124686155
1.922,0.006035626884905273
1.923,0.020336563082236123
1.924,0.033375620785068304
1.925,-0.003552442201076259
1.926,-0.02449042050495072
1.927,-0.004070346505233257
1.928,0.008551621155795035
1.929,0.014439449150601642
1.93,-0.021820260017881864
1.931,-0.008938476680723033
1.932,-0.021244522152346443
1.933,-0.018898402825823127
1.934,0.006581992070936876
1.935,-0.03971978910083983
1.936,-0.029145707319055816
1.937,-0.03231503263451984
1.938,-0.024952556190416433
1.939,-0.02494517003641085
1.94,-0.006774041435927284
1.941,0.002299457248732926
1.942,0.01879273524525383
1.943,0.013851263058380227
1.944,0.018190289388335012
1.945,0.0012857641323493329
1.946,0.003924612158691178
1.947,-0.0021610868660461493
1.948,0.008145067269303797
1.949,-0.006314725937185801
1.95,-0.027911152997075965
1.951,-0.0019416167485154573
1.952,-0.02630339970811801
1.953,-0.02503053573055035
1.954,-0.026471299023754183
1.955,-0.01159823887105488
1.956,-0.053691667042963166
1.957,-0.006265584652090549
1.958,-0.025900239339593404
1.959,-0.024342280463329976
1.96,-0.011052432605387888
1.961,0.008423262474252778
1.962,0.020665195793474686
1.963,0.023088576524471275
1.964,0.016884581474155683
1.965,0.00523237439780902
1.966,-0.002464339830022047
1.967,-0.004025017061268713
1.968,-0.005707602898848083
1.969,0.004894570334014393
1.97,-0.004886857819728302
1.971,-0.044605567344373764
1.972,-0.011327168413840752
1.973,-0.017184857839782845
1.974,-0.02134036678230985
1.975,-0.02986564089085325
1.976,-0.021730875416912477
1.977,-0.028804121973883302
1.978,-0.044825137346864385
1.979,-0.02313893434555249
1.98,-0.020854079675175788
1.981,-0.008861709518406473
1.982,0.008554322051905875
1.983,0.02462865280846633
1.984,0.02022886156357078
1.985,0.00883727519964985
1.986,0.006130637011634999
1.987,0.0020209170093694233
1.988,-0.010801131858361679
1.989,-0.0027509129418963494
1.99,-0.003444547259614074
1.991,-0.00828419265933842
1.992,-0.006621672692353826
1.993,-0.012673014591796677
1.994,-0.01826183125162709
1.995,-0.015901186704674036
1.996,-0.033858644344992264
1.997,-0.04771875644299843
1.998,-0.03934684563844761
1.999,-0.0352774887877767
2.0,-0.01850748779559363
2.001,0.0028314467596547484
2.002,0.006475052346499709
2.003,0.012544327033156763
2.004,-0.008995949869676615
2.005,0.006643551611713799
2.006,-0.0008535305604393199
2.007,-0.01215164251065749
2.008,0.0030996693110931202
2.009,0.0017099153448388704
2.01,-0.028191781708476225
2.011,-0.02622664484186484
2.012,-0.027407519644320456
2.013,-0.03444459694340538
2.014,-0.014023088726204481
2.015,-0.0366383763289488
2.016,-0.03341988245592162
2.017,-0.04610671051158275
2.018,-0.04574768254899778
2.019,-0.05887183817258684
2.02,-0.02096304730325446
2.021,0.00402361092854717
2.022,0.020329520713496325
2.023,0.01201357383601829
2.024,-0.01390462754340216
2.025,0.007550523021471782
2.026,0.020595083422405597
2.027,0.011995852625419853
2.028,0.0051211741045719865
2.029,-0.037400259713808025
2.03,-0.036319445796387774
2.031,-0.047920019203717704
2.032,-0.017883972207392677
2.033,0.0008557913503118887
2.034,-0.03218978212050563
2.035,0.03281110812393846
2.036,0.03019107277384332
2.037,-0.045712617573159794
2.038,-0.05452119923054116
2.039,-0.1383532482769781
2.04,-0.09914899008637
2.041,0.046857916652318365
2.042,0.0425426543145474
2.043,0.04645240961509378
2.044,-0.013445551138511664
2.045,-0.052126438935134675
2.046,-0.013461811095571574
2.047,-0.08168139145339326
2.048,0.02210522583776375
2.049,-0.1391747216716814
2.05,-0.055150785614041596
2.051,-0.0990037725703206
2.052,0.004724972298277165
2.053,-0.04841853510381481
2.054,-0.03486945737062659
2.055,0.13319619317117962
2.056,0.10753132823046456
2.057,0.08415725033421619
2.058,-0.16357965530369672
2.059,-0.2642290145738896
2.06,-0.07716499002783832
2.061,-0.010963085911473432
2.062,0.11928979255642258
2.063,-0.0006124909543047535
2.064,-0.03530110290363089
2.065,-0.21659101310450807
2.066,0.15177196757646144
2.067,-0.016251550361687
2.068,0.055312110997088784
2.069,-0.12974747829782657
2.07,0.03243217033232087
2.071,-0.10267906988694651
2.072,0.08127424480671858
2.073,-0.03810500894015305
2.074,0.039556038247278644
2.075,0.22512807842797383
2.076,0.010338262802443515
2.077,-0.06632435266609786
2.078,-0.16706872084564403
2.079,-0.05525463460927371
2.08,-0.25243586600470097
2.081,0.07261046064244747
2.082,0.053210695608922345
2.083,0.30842819920834136
2.084,-0.3170392991649735
2.085,0.0060852306604136375
2.086,-0.1741494871206037
2.087,-0.3020178759046445
2.088,0.09936947151823015
2.089,0.03552402566281413
2.09,-0.02928602132579812
2.091,0.029116507422629494
2.092,0.5783049785674846
2.093,-0.14990521451704197
2.094,0.058486595876070774
2.095,-0.0342597467099795
2.096,0.21561041799752156
2.097,-0.11579251223808036
2.098,-0.48696019014339925
2.099,-0.11154543158905955
2.1,-0.02671097453161691
2.101,0.09968199954039886
2.102,-0.2677524094362378
2.103,0.1323606098019676
2.104,0.728745631224295
2.105,0.09334201067190756
2.106,0.49190080358088895
2.107,0.5697654711626479
2.108,0.08484476693789372
2.109,-0.3235389365436476
2.11,-0.7725882538559171
2.111,0.06989881743141285
2.112,-0.41511111240319376
2.113,-0.24316338701148385
2.114,-0.5224214357405141
2.115,0.022812991101281748
2.116,0.26487267961903405
2.117,0.11168431933808673
2.118,-0.7230674537279886
2.119,-0.1426708388920432
2.12,-0.3452582389481029
2.121,-0.21186930796408215
2.122,0.4849812473807792
2.123,0.3687461839075723
2.124,0.18337208742130548
2.125,0.5522684248474214
2.126,0.058886979281833965
2.127,0.028927018531125278
2.128,-0.5769058753234194
2.129,-0.08720573317200167
2.13,-0.2871263939172673
2.131,-0.41732867394925405
2.132,-0.9782890785075226
2.133,0.24404735370193814
2.134,-0.538633949673468
2.135,0.1480251883623634
2.136,0.7680501714811392
2.137,-0.11442996418487333
2.138,-0.8442654352330534
2.139,-1.3741138832958866
2.14,0.1240443581574738
2.141,0.13628548681909936
2.142,1.7670859990671028
2.143,-0.18773801884125013
2.144,-0.5231018119857357
2.145,-0.4197651545234156
2.146,0.009854304814947226
2.147,-0.3519583861309621
2.148,-0.09181473099637676
2.149,-0.9544716038197713
2.15,-0.9745895291580949
2.151,-0.9321924092982404
2.152,-1.1070167369013502
2.153,-0.2899657694916291
2.154,0.08264296283379889
2.155,0.44131234505909467
2.156,1.5873034069702172
2.157,1.0985269874224368
2.158,-0.5406556268508016
2.159,-1.7594387115115793
2.16,-0.8345325439940512
2.161,-0.22039598320863837
2.162,-0.04120683803451968
2.163,-0.38742432677864463
2.164,-0.713398204925266
2.165,-0.545687878879018
2.166,-0.4042842251040338
2.167,0.13591720889232053
2.168,0.05589697973011212
2.169,-0.7359932901684532
2.17,0.7385931814530764
2.171,-0.3285314276417493
2.172,-0.7345816566540257
2.173,0.3253257561238552
2.174,-0.2032228057200578
2.175,0.9896822564375662
2.176,-0.581358299272299
2.177,1.0669291923831254
2.178,-0.4604056049490151
2.179,-2.385495771961656
2.18,-1.920936675740147
2.181,0.9686817300485
2.182,-0.16037606862846812
2.183,-0.43931651811211686
2.184,-1.6883203197272245
2.185,-0.20981061681966495
2.186,0.24559469105004306
2.187,0.985888268204333
2.188,-0.7302674487349279
2.189,-1.0256397040692324
2.19,0.40680775511135947
2.191,0.9309663674161375
2.192,-1.06736811042824
2.193,0.4836609808916252
2.194,-0.0974391183347126
2.195,1.2040572131890148
2.196,0.5759192018082834
2.197,-1.943495851373071
2.198,-1.3620278408395574
2.199,-0.9011913749055384
2.2,-1.609344023680691
2.201,-0.03826055120785166
2.202,0.7376220254203375
2.203,-1.5966991355999012
2.204,1.5926220254991519
2.205,-0.2732463694078412
2.206,1.155772329673862
2.207,0.5886852284560684
2.208,1.1171645203231872
2.209,0.00020196451223181318
2.21,-0.5598685340174294
2.211,-1.026890555003106
2.212,0.12317840481502618
2.213,-2.354432320409287
2.214,0.0548865379221145
2.215,-0.5598821069514812
2.216,1.8705347445270994
2.217,0.3354225745692909
2.218,-0.38766391441855325
2.219,-1.3081478109248095
2.22,-2.018384437731294
2.221,0.09059421031590376
2.222,2.0114588792016987
2.223,1.1072796267921745
2.224,1.3864587155152015
2.225,0.6200480816085381
2.226,-0.4510753808782465
2.227,-0.5647735700635638
2.228,-0.43549931457400076
2.229,-3.107077677616657
2.23,0.6426620456617343
2.231,-0.2294922054073392
2.232,0.4467742301527531
2.233,-2.2117365934766386
2.234,1.0321636428296133
2.235,3.1289697013739075
2.236,0.33134826795405653
2.237,1.6343151239013445
2.238,-0.5157656650643586
2.239,-2.6646033172686026
2.24,0.08966380789601874
2.241,1.6897964129838758
2.242,0.6649262679351156
2.243,1.6811742375939545
2.244,-1.9575441104093798
2.245,-1.9458783191093165
2.246,-0.05275477516326812
2.247,-0.28375213872075566
2.248,-1.564563042164361
2.249,-0.24445150334884555
2.25,-0.17493628773133993
2.251,0.7011827341211655
2.252,-0.23112739331049476
2.253,0.5671520771819566
2.254,0.07075298409049433
2.255,3.8697274027728708
2.256,1.2771946096364921
2.257,3.346838531170014
2.258,-0.7588242159864398
2.259,-3.243570322573814
2.26,0.4016365204145116
2.261,0.3325954329504602
2.262,1.5667936000021605
2.263,1.2803635616549074
2.264,-0.39549220857919626
2.265,-1.312372246541913
2.266,0.9920102577766904
2.267,0.07494867210595897
2.268,0.4881609804235599
2.269,-2.8845462895909355
2.27,0.5216278217597644
2.271,-0.24145885548104393
2.272,2.3514656179300695
2.273,0.9347420058199083
2.274,0.8639377144296485
2.275,2.0803476095373137
2.276,0.6030063477209189
2.277,2.333506233448484
2.278,0.6898444070686766
2.279,-2.2300140007178637
2.28,0.045787087223933175
2.281,-0.8724744976613729
2.282,-0.3650768871901647
2.283,0.1961136900453574
2.284,0.19037919726891628
2.285,-0.4612078096337827
2.286,1.4196607257558707
2.287,1.2957900578255175
2.288,-0.8184601620912405
2.289,0.6848845300833115
2.29,1.2960285773073061
2.291,0.6349046666349695
2.292,1.4890576875889874
2.293,-1.9923724551373725
2.294,0.3767631055827195
2.295,-0.7105947896937437
2.296,-0.2959352793410258
2.297,-0.9170480511645663
2.298,-3.3044376711648735
2.299,-3.60072201388702
2.3,-1.8841573667537475
2.301,1.502696378424573
2.302,1.0357068688019575
2.303,-0.9706381860229086
2.304,2.0088897519121174
2.305,-0.34905898083925846
2.306,1.1656243823049206
2.307,1.6679509438668616
2.308,0.4632327422849843
2.309,0.9225976666931934
2.31,0.05680802892399829
2.311,-1.6050618033967385
2.312,2.0359039559914054
2.313,-1.0080011251333596
2.314,-0.9432969072877404
2.315,1.889081924361978
2.316,1.6621595648683134
2.317,0.8707218369751855
2.318,1.8706825764900437
2.319,-2.5266770782678107
2.32,-1.1882029313783096
2.321,1.488653693392644
2.322,3.649490073249386
2.323,-0.5675066972704189
2.324,-2.178448590251973
2.325,-0.42613380228981995
2.326,-1.637768790806394
2.327,-0.33650946668577214
2.328,-0.0665548386376818
2.329,-2.707953033851567
2.33,-3.332685768400252
2.331,-0.8653387541775794
2.332,0.1806860352264129
2.333,-3.4459593149418457
2.334,0.9680344790016012
2.335,2.625154944416973
2.336,3.711495082521309
2.337,3.050665908895115
2.338,2.3862669648443564
2.339,-2.179874878825806
2.34,-0.40282864901469256
2.341,0.6470110513933086
2.342,1.7831540313023044
2.343,2.934149680311628
2.344,-2.3704396486326034
2.345,-1.838949013888148
2.346,1.714888936941027
2.347,1.0429898103880457
2.348,-1.6698069544312417
2.349,-0.2893224015756648
2.35,-0.4991124310483504
2.351,1.8921144310364189
2.352,0.002247066385467498
2.353,1.3882676561725926
2.354,4.62005950840629
2.355,3.1725739083456514
2.356,2.98951367743452
2.357,2.54001045319878
2.358,-1.5774807968944233
2.359,1.151482782777739
2.36,-1.2123160771123014
2.361,-0.159988453269487
2.362,-0.4258421172318505
2.363,1.533084775155152
2.364,0.2379679189974436
2.365,-1.5892758238423708
2.366,0.7324385715850967
2.367,-2.1486703165265775
2.368,-0.10620271067686597
2.369,0.12410626267668445
2.37,2.5382736740210485
2.371,-0.5011872230492884
2.372,-1.3080047025984756
2.373,-1.0452007269043102
2.374,-1.206585260352487
2.375,3.945978628376882
2.376,4.549814884742887
2.377,1.020635639365423
2.378,-0.2806150772742605
2.379,-3.179599865383932
2.38,-2.440841265203987
2.381,-0.7367848972437995
2.382,0.25876419547295015
2.383,-2.1219306562047455
2.384,-0.016148148471812708
2.385,-0.05197711109373908
2.386,2.039059701813299
2.387,1.2590736719857156
2.388,0.2720459652497992
2.389,-1.2555009790298022
2.39,0.3450674376917773
2.391,1.5968982915654628
2.392,-1.664197509247
2.393,-0.4220923934905063
2.394,0.11095752733916858
2.395,-0.18254776038898096
2.396,0.430601086029958
2.397,0.18918828139839886
2.398,-4.177741890855196
2.399,-2.8569286002200336
2.4,-3.2439452018540673
2.401,2.103969375517139
2.402,5.188914307028008
2.403,-0.0456721736358105
2.404,1.4039753687093555
2.405,-0.2592882868372651
2.406,2.9663706109021453
2.407,-0.6466144370040424
2.408,0.9518397656978282
2.409,-1.9186640746942165
2.41,-0.9495432519167438
2.411,-2.0694751124588646
2.412,0.25075857813426944
2.413,-2.6860713723297565
2.414,-0.004287111517636621
2.415,0.1523286881062967
2.416,1.3034344572366747
2.417,0.6034437808684584
2.418,-2.775639058788829
2.419,-2.0559059807135966
2.42,1.4569447726457525
2.421,0.2983879953379654
2.422,4.119635276955149
2.423,3.831506799710096
2.424,-0.6684940178286014
2.425,-1.7517489465426832
2.426,1.126422554600909
2.427,-0.5394211842099182
2.428,1.956107038195216
2.429,-1.5305031700876812
2.43,-2.610386640453367
2.431,-2.7228404145923712
2.432,0.5428253553753897
2.433,-1.9697753487854115
2.434,-0.13350248563707603
2.435,2.942062978805298
2.436,1.7530227237911509
2.437,1.3257088628565101
2.438,-0.7819112614784126
2.439,-0.739836153820389
2.44,0.2987072479239032
2.441,0.9599961788979645
2.442,1.8966191251149578
2.443,0.2316499489154119
2.444,-2.5884269323368136
2.445,-0.24938951874640963
2.446,2.4879227392503944
2.447,-1.7002765686418875
2.448,-2.285895971255509
2.449,-2.784346885237823
2.45,0.033876077496059885
2.451,0.3541039934328275
2.452,-0.34100626152286173
2.453,-1.4098597794671806
2.454,0.897659573343983
2.455,0.037389387995297854
2.456,3.059865369434977
2.457,2.692651374487133
2.458,-2.7753667154319954
2.459,-4.447917269479625
2.46,0.8188861729597696
2.461,-0.6136874376399414
2.462,2.3920403799675403
2.463,-0.3160247308481403
2.464,-1.2049342375080212
2.465,-0.20781322275445874
2.466,-1.3523958964389196
2.467,0.27370722763962685
2.468,-0.8736499254660703
2.469,-2.36458895661473
2.47,0.4895864331208927
2.471,0.26085574120286753
2.472,0.31851197314655294
2.473,-1.4255517311377301
2.474,2.898537466548147
2.475,3.0018085196597126
2.476,3.3834736932872564
2.477,0.10436494851112876
2.478,-4.287875198258917
2.479,-0.42638124522974113
2.48,-2.170880524312641
2.481,-1.2039164143340269
2.482,1.2305381082933402
2.483,1.7327049683958644
2.484,-0.405600267076937
2.485,1.7310402561092375
2.486,2.264075338394099
2.487,-0.43063390798747847
2.488,-0.44608814156594745
2.489,1.2784148171050966
2.49,-3.353246066985505
2.491,0.23192762911429518
2.492,-1.8271309590355251
2.493,-1.0884435862370003
2.494,-0.6124051784702181
2.495,0.3247420054456045
2.496,0.4167517150749807
2.497,-1.55134533214805
2.498,0.822404124212866
2.499,-0.4989554429223791
2.5,-3.0954336248845715
2.501,2.4549304849249176
2.502,0.9187671815695717
2.503,1.2107749344446808
2.504,0.4022346536396864
2.505,-0.15367091293405627
2.506,2.444516311702909
2.507,1.2006221350905384
2.508,-0.4228407361313349
2.509,-2.1279630459273142
2.51,-1.6357381170555718
2.511,-2.462320630549146
2.512,-0.7776564699615539
2.513,-2.631361915010392
2.514,-1.0129480592212339
2.515,2.1941867334099383
2.516,2.626403071233167
2.517,0.23512474097591698
2.518,-1.4340664924978208
2.519,0.3414872674040557
2.52,-0.048762662797338784
2.521,0.7892644084409608
2.522,0.2071081142585502
2.523,1.7256577054970355
2.524,1.4184911398707813
2.525,-0.4148978386239312
2.526,0.8644989748354465
2.527,-0.20384497468285026
2.528,-0.8320044914310285
2.529,-4.079860961903778
2.53,-1.3536032539826028
2.531,0.30243273291307765
2.532,-1.527939961433922
2.533,-0.8150300997466335
2.534,-1.0088917303562113
2.535,1.5547505929867111
2.536,1.618731237215345
2.537,0.002189316117359043
2.538,0.8743909188488331
2.539,-0.2803339426234545
2.54,-1.1028403483923275
2.541,1.4636923966765474
2.542,1.9185470169862906
2.543,1.2502003344761707
2.544,-2.098875661334296
2.545,0.6131944535426637
2.546,-0.8061924587107022
2.547,-0.6874136718736714
2.548,1.9232634105064412
2.549,-0.7635400925499547
2.55,-1.1385192337033212
2.551,-2.494467175224119
2.552,1.3516714405929706
2.553,-1.4328398063233114
2.554,-0.49664860034375335
2.555,1.2512196150047854
2.556,3.382852521835619
2.557,1.7663354338642625
2.558,-0.8630630513931246
2.559,-1.2765041708875646
2.56,-1.5830662391187384
2.561,0.3032073894346226
2.562,0.6006986887387927
2.563,0.876675168551652
2.564,0.24559379941500303
2.565,-0.09950159266046991
2.566,-0.42743568625529127
2.567,0.7580111789925985
2.568,-0.31466232988008996
2.569,-1.360585219642452
2.57,-0.3706181041310238
2.571,0.45258746556055846
2.572,1.173470821046293
2.573,-0.007987464965703153
2.574,-0.6078708619290262
2.575,1.1930488416836176
2.576,1.4392301582495877
2.577,0.48395792717837466
2.578,-0.4423384057025393
2.579,-1.0840078486642506
2.58,-1.842715498302452
2.581,-0.6583361719040041
2.582,-0.4737478478237013
2.583,0.7140915510705605
2.584,0.9972594216227242
2.585,-0.2623353566093978
2.586,0.29539443678807736
2.587,1.8185222083727415
2.588,0.675088962959693
2.589,0.3666969274570606
2.59,-0.8177285142447385
2.591,0.7927189465465365
2.592,-0.7156216032629829
2.593,-1.1920066589231901
2.594,-0.4004601643067453
2.595,-0.0236020845849314
2.596,0.48090765436138605
2.597,-1.1954321997790567
2.598,-0.5365500697000033
2.599,-0.8699257228663214
2.6,-2.421809345094006
2.601,0.9786584612507984
2.602,0.2279912814669097
2.603,1.2215065375493903
2.604,0.22781393644832104
2.605,0.4065614798747296
2.606,0.5298641282978763
2.607,1.4090532538974145
2.608,-0.7592138068756284
2.609,0.148391510108764
2.61,0.45518780985413243
2.611,0.21707985415238787
2.612,1.115626044544365
2.613,-1.0066115096319552
2.614,0.25193188475022205
2.615,0.20969664654819947
2.616,1.4136104980527548
2.617,0.1335319840259
2.618,-0.9739585521871876
2.619,-0.17956412053213852
2.62,-0.664491021219813
2.621,-0.2691105475423088
2.622,0.6712282809914637
2.623,1.0555459913299772
2.624,1.0756747905164452
2.625,0.21840063333068407
2.626,1.059859951861781
2.627,-0.6896346104101448
2.628,-0.5930375081820853
2.629,-0.7946777770988519
2.63,-0.6257965325453675
2.631,-0.35161330646070393
2.632,-0.03156101200415632
2.633,-0.6826764456630304
2.634,0.0002525105482831056
2.635,0.5320258387899092
2.636,0.379314941495398
2.637,0.42024084467362555
2.638,-0.38442282174310083
2.639,-0.7160498469586185
2.64,-0.18261369520036227
2.641,0.4754788138639293
2.642,0.40489914053483694
2.643,0.8929839975786927
2.644,-0.7303808307963728
2.645,-0.5703295345312817
2.646,1.2401275711232365
2.647,-0.6513356905082275
2.648,-1.0200715829640412
2.649,-0.14857413698335556
2.65,-1.2930299513825358
2.651,-0.19645041360312557
2.652,0.9130102158584814
2.653,-0.7182320252044643
2.654,-0.6613825371491087
2.655,0.019981549653229732
2.656,1.198024843243382
2.657,0.878078864825283
2.658,-0.5357234434182498
2.659,-0.39737475438662356
2.66,0.13218211593714807
2.661,0.7729961224116122
2.662,0.13332002916380734
2.663,-0.9238916195662451
2.664,-0.5782083130455474
2.665,-0.40310605359295665
2.666,-0.1233172438353616
2.667,-0.06603616359492427
2.668,0.3130877764835509
2.669,0.3173258392177101
2.67,-0.07892647995380839
2.671,0.5235800365257225
2.672,0.24165631151112613
2.673,0.05924192077577008
2.674,0.4428727550197032
2.675,0.40872034988658634
2.676,1.1297728779341092
2.677,-0.39166637400296295
2.678,-0.6391634551721878
2.679,-0.7726108030454026
2.68,-0.342426756131106
2.681,0.32942774630830896
2.682,0.13773090109247313
2.683,-0.3625215605742273
2.684,0.168459771275842
2.685,0.21590774394192158
2.686,-0.3686546400546764
2.687,0.18065099548057356
2.688,-0.3374265121005232
2.689,-0.17393770513289464
2.69,-0.21521294410697306
2.691,0.26958829689449854
2.692,0.018303880695789254
2.693,-0.4293671984307445
2.694,0.15349708188704964
2.695,-0.2101912386008898
2.696,0.2587133711172042
2.697,-0.2602930799201276
2.698,-0.48459919815284197
2.699,-0.40167497817673764
2.7,-0.1719837405367111
2.701,0.3640131892823647
2.702,0.24348391105893072
2.703,0.2498831293969414
2.704,-0.00374412421766733
2.705,0.1498129152767922
2.706,0.26018653601946
2.707,0.12853042608908286
2.708,-0.3178262245034589
2.709,-0.0090266351465402
2.71,-0.036311244000174714
2.711,-0.18444619514025604
2.712,-0.34344335976945767
2.713,0.04883733060219273
2.714,-0.03301949099478753
2.715,-0.016772607873356937
2.716,-0.05344905465315399
2.717,-0.1174806377114415
2.718,-0.016125481798527068
2.719,-0.23685435735551733
2.72,-0.15249512554722314
2.721,0.19547594824495582
2.722,0.10105510750050292
2.723,0.35846492350059594
2.724,0.24228601437177527
2.725,-0.026818514545367475
2.726,-0.01819361977239156
2.727,-0.28054233359166647
2.728,-0.24964489691985314
2.729,-0.28409546494773635
2.73,-0.0940184026123378
2.731,-0.11024233446849195
2.732,-0.22790348106189437
2.733,-0.1364502822723526
2.734,0.02894036057477528
2.735,0.11026135655514688
2.736,-0.060765814139114006
2.737,0.03220672353001906
2.738,-0.18644394866720973
2.739,-0.046166789719960216
2.74,0.017819609118502663
2.741,0.0006604886749309643
2.742,0.04372024157384667
2.743,0.019155904691611367
2.744,-0.19755239186508924
2.745,-0.011984247595736172
2.746,-0.033844800498564545
2.747,0.02147508041347675
2.748,-0.11957396651054221
2.749,-0.11060715564941938
2.75,-0.12056045911017503
2.751,-0.06893951833254712
2.752,-0.09232361780721207
2.753,0.018901740775371816
2.754,-0.0355532376182026
2.755,0.03960160893588076
2.756,0.03248766107070734
2.757,-0.06141465046217512
2.758,-0.08747085189496621
2.759,-0.0636023106554127
2.76,-0.08818927527749591
2.761,0.023148750342702
2.762,0.007958980851717336
2.763,-0.013084335154869339
2.764,0.002055646052521544
2.765,-0.02773748685177352
2.766,-0.008477715876140317
2.767,-0.01050007894720148
2.768,-0.01813959008919858
2.769,-0.07218281668926702
2.77,-0.05462610146916291
2.771,-0.00991830386192866
2.772,-0.0017757302870784605
2.773,-0.052112234473677604
2.774,-0.028282189138284175
2.775,-0.013557281589871628
2.776,-0.014543771257519208
2.777,-0.06514395272315589
2.778,-0.06704021117765335
2.779,-0.052470111194001384
2.78,-0.015377214662161959
2.781,0.009946145979735166
2.782,-0.001584230069576066
2.783,-0.00802184223518742
2.784,0.0005393183301345104
2.785,0.0003582381815360764
2.786,-0.011786345420853517
2.787,-0.022374244791045994
2.788,-0.011026254261012367
2.789,-0.009321850049184732
2.79,-0.012717081448034606
2.791,-0.025902946959808215
2.792,-0.0269748448919159
2.793,-0.0338107662132897
2.794,-0.027644281224903693
2.795,-0.04037055293105123
2.796,-0.03274985102646877
2.797,-0.06215996676836506
2.798,-0.046572149643075766
2.799,-0.029998932683285358
2.8,-0.015048213346819855
2.801,0.026167285693823976
2.802,0.012673514816451962
2.803,0.00036975579810515427
2.804,0.004200135606998289
2.805,-0.01954727238771419
2.806,-0.007365925910694826
2.807,-0.016859392174588664
2.808,-0.0005687179315076755
2.809,-0.017850165993550857
2.81,-0.017849227830216495
2.811,-0.02736389324041844
2.812,-0.006251766056868243
2.813,-0.028046199967377825
2.814,-0.008476690167314904
2.815,-0.023435328916912142
2.816,-0.033695114431137374
2.817,-0.04008320342188067
2.818,-0.03859688568827474
2.819,-0.05187201139063703
2.82,-0.019259485894080754
2.821,0.008105619925046484
2.822,0.00910481701498261
2.823,-0.0032221407889463753
2.824,0.005051369627943655
2.825,0.015678060814052826
2.826,0.006331980592153487
2.827,-0.00872470419663371
2.828,0.00021721372506338082
2.829,-0.015593319180965352
2.83,-0.033292599156928206
2.831,-0.02982411973036872
2.832,-0.007581368843064489
2.833,-0.027142513535181094
2.834,-0.02880374579652787
2.835,-0.03414171042767594
2.836,-0.01903973580207016
2.837,-0.02707510534566676
2.838,-0.01991005709967311
2.839,-0.03374758117706834
2.84,-0.013075094809946718
2.841,-0.015071918855714891
2.842,0.024804752141325312
2.843,-0.00040526776713642465
2.844,0.008187089300647094
2.845,-0.011890952209949943
2.846,-0.011579391111471809
2.847,-0.016029929975558542
2.848,-0.01492753008504798
2.849,-0.01686983290578368
2.85,-0.02128578819676454
2.851,-0.011794199353622338
2.852,-0.03380582635032779
2.853,-0.021742975217249334
2.854,-0.013734987742942628
2.855,-0.03581883348380313
2.856,-0.044802701711360554
2.857,-0.04518122321535538
2.858,-0.029840762802847032
2.859,-0.02975508283771937
2.86,-0.020881388977418924
2.861,0.00539648891486718
2.862,-0.0005231774011406169
2.863,0.018551577869825274
2.864,0.01057197890887399
2.865,-0.003528323984946881
2.866,-0.013607779338988452
2.867,-0.016054201234497377
2.868,-0.003029579967235384
2.869,0.00128333211881661
2.87,-0.021702937606475715
2.871,-0.0150693258629252
2.872,-0.04315201925645538
2.873,-0.02931801535770677
2.874,-0.0257475167646843
2.875,-0.03930495348181949
2.876,-0.0465087290294964
2.877,-0.04907282971526271
2.878,-0.038234051208336325
2.879,-0.0330863210672897
2.88,-0.037467339947974306
2.881,-0.02016397227461674
2.882,0.004917485875218272
2.883,0.01680232716212745
2.884,-0.020500580811608937
2.885,-0.00495789773958202
2.886,-0.009993676852227074
2.887,0.007187786866288504
2.888,-0.011735094070946233
2.889,-0.006682631151999646
2.89,-0.01342226405389946
2.891,-0.04046276199920289
2.892,-0.014102511953565322
2.893,-0.02081964055923504
2.894,-0.019854942885351813
2.895,0.009554619848742837
2.896,-0.057483370415515565
2.897,-0.024645583008793347
2.898,-0.043526910443688165
2.899,-0.027835141788657487
2.9,-0.01503449500144321
2.901,-0.0026926257968201243
2.902,0.005795568075598705
2.903,0.01602935797618811
2.904,-0.007687412225364402
2.905,0.008056098818150758
2.906,-0.008381195034882598
2.907,-0.017483294644128313
2.908,-0.011870974333341298
2.909,0.0025740400816372704
2.91,-0.019672080530598983
2.911,-0.015055420176531388
2.912,-0.028575972823802177
2.913,-0.014875181691692808
2.914,-0.01756231694646297
2.915,-0.01070040625848104
2.916,-0.03787559202698157
2.917,-0.0346826890416379
2.918,-0.03914742532782279
2.919,-0.01722435824128394
2.92,-0.021241323272064627
2.921,0.00952718032783199
2.922,0.01007532869432052
2.923,0.012621805905028354
2.924,0.008932277518593261
2.925,0.0036041480324210205
2.926,-0.0048490973877919445
2.927,-0.003502020180128025
2.928,0.00894478738119011
2.929,0.000392498746234083
2.93,-0.00509073024277894
2.931,-0.022657900516606433
2.932,-0.029620371546694144
2.933,-0.012361954019471015
2.934,-0.015116493949805496
2.935,-0.013918365424679625
2.936,-0.04161734839613445
2.937,-0.04312132710819843
2.938,-0.05597856164548713
2.939,-0.033562424183402426
2.94,-0.0035409510566264037
2.941,-0.0020405050044164895
2.942,0.01897539760688421
2.943,0.011907929077970267
2.944,0.011805567929015466
2.945,-0.009843954301511578
2.946,-0.0022825283344402123
2.947,-0.03500736095968938
2.948,-0.008151239344915889
2.949,-0.025211652414752775
2.95,-0.001166292141004348
2.951,-0.009771434114129812
2.952,-0.015503299055881156
2.953,-0.006145988149555481
2.954,-0.03280626509665454
2.955,-0.010610627399562731
2.956,-0.02569386486619235
2.957,-0.04262868497093546
2.958,-0.027663865263685024
2.959,-0.040136052136015385
2.96,-0.02118626084666605
2.961,-0.002894972702749552
2.962,0.007848235114048318
2.963,0.003815731032139589
2.964,0.02136510840215798
2.965,-0.00038537358272049127
2.966,0.0009615663910586842
2.967,-0.010227448691905186
2.968,-0.02391531989380785
2.969,-0.005632432902522294
2.97,-0.03177395299246055
2.971,-0.017656095499791462
2.972,-0.0332764901720866
2.973,-0.0009057068970494807
2.974,-0.013624976747048446
2.975,-0.026447315213999956
2.976,-0.021798399206518097
2.977,-0.04814507113583116
2.978,-0.03300314806451311
2.979,-0.0264919857120079
2.98,-0.009716991448472748
2.981,0.016499284432449437
2.982,0.021048653978456795
2.983,0.01785515861710214
2.984,-0.006827090413108403
2.985,-0.006808896712427133
2.986,-0.003201289298262586
2.987,-0.00300004253773321
2.988,-0.01642027206763736
2.989,0.01637569355688788
2.99,0.0031053497187541316
2.991,-0.010354882419883624
2.992,-0.01827840685455897
2.993,-0.0223051194832904
2.994,-0.031661480790847005
2.995,-0.026132871608978692
2.996,-0.03125989781651485
2.997,-0.051500610043171975
2.998,-0.034496408426200734
2.999,-0.029442051236143064
3.0,-0.030833780624626182
3.001,-0.004225757682914253
3.002,0.010190874247325083
3.003,0.034448846687331225
3.004,0.015892212667567695
3.005,-0.009957504778835925
3.006,0.003492752650163777
3.007,-0.0187993735603472
3.008,0.00631694906051817
3.009,-0.011843207802754104
3.01,-0.012385004399280905
3.011,-0.0025073165861119063
3.012,-0.03125879652072199
3.013,-0.03354176710575532
3.014,-0.027365017203336346
3.015,-0.015909790491128173
3.016,-0.04841596281968896
3.017,-0.06678881794111666
3.018,-0.04173319986683868
3.019,-0.021754674636003685
3.02,0.00086510516762623
3.021,0.00036548392694392765
3.022,0.01083247884076241
3.023,0.027731600792095475
3.024,-0.007749306438996149
3.025,0.0001343358882076838
3.026,0.0011596627644313798
3.027,0.001789686818722728
3.028,-0.00898339818230039
3.029,-0.00616212620777388
3.03,-0.0357056985766656
3.031,-0.021720759430892286
3.032,-0.013224277898524482
3.033,-0.028764943960124408
3.034,-0.02030981649408623
3.035,-0.021194707406718426
3.036,-0.03601706836918801
3.037,-0.036130921669712907
3.038,-0.046216459723720155
3.039,-0.028704945835881204
3.04,-0.004401330903334324
3.041,0.007201614769657302
3.042,0.009716985454661414
3.043,0.019071074098868962
3.044,0.018731286177920664
3.045,-0.015842032588537072
3.046,0.011484757649271841
3.047,-0.005425700338028673
3.048,0.0010096675616578657
3.049,0.0061067821536957565
3.05,-0.023897565287311098
3.051,-0.02159034339847445
3.052,-0.02000176712592258
3.053,-0.02613571333328546
3.054,-0.0029057291049946754
3.055,-0.03358585344548332
3.056,-0.03750101047982568
3.057,-0.035144903915265306
3.058,-0.04796313500851425
3.059,-0.029947418959209972
3.06,-0.006680014218464757
3.061,0.002952949149651706
3.062,0.015298817551744198
3.063,0.012186694567992932
3.064,-0.0029076938510787034
3.065,0.008525846296505695
3.066,0.018096592400272435
3.067,-0.0012251835821030232
3.068,-0.0003379314833235987
3.069,0.0017169033109790382
3.07,-0.02221806903882332
3.071,0.00318597651679323
3.072,-0.014435532158710868
3.073,-0.001321454688385704
3.074,-0.026926578315758017
3.075,-0.006177977059633995
3.076,-0.023533764146815298
3.077,-0.0309974847450019
3.078,-0.03293980389471732
3.079,-0.027813626381825753
3.08,0.002813719372308248
3.081,0.008348777132967986
3.082,-0.0027737123895400125
3.083,0.006973120485280353
3.084,0.011044189670288538
3.085,0.009076208142818083
3.086,0.0006483447319980493
3.087,0.011448137384569314
3.088,-0.02143330285236697
3.089,-0.003105499738538761
3.09,-0.02703495687464793
3.091,-0.00557179572022304
3.092,-0.016732506322505922
3.093,-0.01277237584251762
3.094,-0.02756288506427966
3.095,-0.01089111166921892
3.096,-0.020194597140502986
3.097,-0.03001832965357239
3.098,-0.035900472768451444
3.099,-0.018854386388516452
3.1,-0.01558451151117345
3.101,0.016177374425434557
3.102,0.034069058605776026
3.103,0.02952897892745849
3.104,0.006285131519990231
3.105,0.010269518899495593
3.106,-0.011037442424213829
3.107,0.005662689552374964
3.108,0.003264718014889695
3.109,-0.022557965675922217
3.11,-0.019790819933849797
3.111,-0.015317520637224802
3.112,-0.018113128190970225
3.113,-0.028379257433293205
3.114,-0.014349684086326963
3.115,-0.020485846655342352
3.116,-0.03186876513178717
3.117,-0.04272532842472614
3.118,-0.023431282922315323
3.119,-0.007411357585220929
3.12,-0.012663088175207967
3.121,0.002188840682525648
3.122,0.02317559541283562
3.123,0.01593242325469044
3.124,0.012877600113190458
3.125,0.014742862869945207
3.126,-0.01650803496670019
3.127,0.013813927396081609
3.128,0.0001781691893015828
3.129,-0.0072814937748055504
3.13,-0.008371525656968207
3.131,-0.012167485776157637
3.132,-0.03172163891420871
3.133,-0.0006396509374289533
3.134,-0.017130212633644306
3.135,-0.017874013933357503
3.136,-0.019713485990804046
3.137,-0.04468140775154541
3.138,-0.028485467295905648
3.139,-0.025943136552481625
3.14,0.0013394701779013303
3.141,-0.012261998381524659
3.142,0.017972869443349276
3.143,0.014185329412314244
3.144,0.019295543285053052
3.145,0.012748635134262009
3.146,-0.003788353376729595
3.147,-0.00578793957144646
3.148,-0.0009518820545917645
3.149,-0.011429066654394245
3.15,0.0016450785496169248
3.151,-0.014778920361942385
3.152,-0.04277407434969835
3.153,-0.018631319806961727
3.154,-0.027222475453859408
3.155,-0.037909866451785575
3.156,-0.040895830420144136
3.157,-0.03266778859451515
3.158,-0.019225380451451512
3.159,-0.019425998180272422
3.16,-0.012483906078302515
3.161,0.01427916328495165
3.162,0.015083232465838467
3.163,0.013978330487985148
3.164,0.004140557867530814
3.165,-0.008758354001286599
3.166,0.00010087681719550198
3.167,0.0036270072559475616
3.168,-9.832933977311012e-05
3.169,-0.00590871802216993
3.17,-0.015518165999622632
3.171,-0.0042898785917338846
3.172,-0.02616055120911497
3.173,-0.006407410197822599
3.174,-0.026143350314436313
3.175,-0.028405158878175053
3.176,-0.04247267202432392
3.177,-0.03805871128136136
3.178,-0.022041043616417753
3.179,-0.01668350701909341
3.18,0.0040838358708844055
3.181,0.015660463117861435
3.182,0.009356780432187115
3.183,0.018336209354120475
3.184,0.00860238238741062
3.185,0.022786291387414816
3.186,-0.00724674770897296
3.187,0.011704888153002002
3.188,0.010519296430383365
3.189,0.01726941254516239
3.19,-0.00943490571270036
3.191,-0.002526049538656469
3.192,0.010550756928637264
3.193,-0.0196202369044581
3.194,-0.03074731734306531
3.195,-0.03895624810335704
3.196,-0.019952650181004887
3.197,-0.05115075391250391
3.198,-0.03479153499547159
3.199,-0.0167404491224137
3.2,-0.0031220423749944207
3.201,0.015420451820234611
3.202,0.023343718226184
3.203,0.0351604735277428
3.204,0.007609293929333842
3.205,0.003439042694575997
3.206,-0.0022766388795111697
3.207,0.01179900869188586
3.208,0.011323282832820388
3.209,0.004215360254092677
3.21,0.007227148135368786
3.211,-0.020699076430001722
3.212,0.005137432586451036
3.213,0.0025198659220457536
3.214,-0.007309050721238679
3.215,-0.0016061727680943862
3.216,-0.04291367750427859
3.217,-0.03683107162077397
3.218,-0.037688383570680856
3.219,-0.01316546092891045
3.22,-0.01474154959446135
3.221,0.019474936328440134
3.222,0.035560486268752876
3.223,0.030058470450970192
3.224,0.020704912313599538
3.225,0.0010655206838624462
3.226,-0.0022829810133255957
3.227,0.016729163148450053
3.228,0.010848978343001057
3.229,4.940843933611515e-05
3.23,-0.008050084818675618
3.231,-0.028439647332413692
3.232,-0.0215059361975004
3.233,0.0071393618381821004
3.234,-0.026731843019461937
3.235,-0.01679109075903546
3.236,-0.015534445933815791
3.237,-0.04339697292340648
3.238,-0.027749118573407717
3.239,-0.010261694147016439
3.24,-0.0033754679604318595
3.241,0.04132397015711283
3.242,0.005909358122729372
3.243,0.034434221118976975
3.244,0.01688014492929004
3.245,0.019404479091802707
3.246,0.011339884206890388
3.247,-0.002357045876069913
3.248,0.006087249550923213
3.249,-0.017397360871301802
3.25,0.0029037857049090065
3.251,-0.00445743646797424
3.252,-0.0036680180759074824
3.253,-0.0006506113983174699
3.254,-0.0095078150276404
3.255,-0.016461484038789168
3.256,-0.03367582408486462
3.257,-0.037225977361889616
3.258,-0.016984671674379493
3.259,-0.004533063737115843
3.26,-0.005136910176819025
3.261,0.01384484343086089
3.262,0.01429430166493344
3.263,0.03631981467428547
3.264,0.026007853991634324
3.265,0.03184318576063021
3.266,-0.0011104764778809128
3.267,0.0019405838099557059
3.268,0.006858094006685642
3.269,0.00839309797320745
3.27,-0.004538619577372566
3.271,-0.015421691441102678
3.272,-0.0004934120433043787
3.273,-0.0032731194100497456
3.274,-0.021599246293088244
3.275,-0.0036402582107646943
3.276,-0.012415280395257963
3.277,-0.02801275296305434
3.278,-0.027307811561557385
3.279,-0.012607439149715925
3.28,-0.010624264999592646
3.281,0.014433870190282446
3.282,0.0025655146724247457
3.283,0.03410586998271591
3.284,0.004487980777324166
3.285,0.028214594206217802
3.286,0.005121092496487903
3.287,0.004353684076207267
3.288,-0.0009838638945850239
3.289,-0.00020219913321467727
3.29,0.012553501220117544
3.291,-0.030819894836160214
3.292,0.0042125774235588975
3.293,-0.006353691366061724
3.294,-0.023756041611124698
3.295,-0.027196999368147897
3.296,-0.006602398469387344
3.297,-0.03805972269574188
3.298,-0.0388861086271689
3.299,-0.0060235648172289255
3.3,0.0021297183722647746
3.301,0.0055058381563107325
3.302,0.027007250341931903
3.303,0.015835546436334856
3.304,0.03186299333565317
3.305,0.024546075853555768
3.306,0.014494426968685782
3.307,0.010839134641570729
3.308,0.023657622465277334
3.309,0.0034274121741499626
3.31,-0.012698103620565789
3.311,-0.0006945313802340161
3.312,0.013056017043738394
3.313,-0.01912881557392409
3.314,-0.014547667389559819
3.315,-0.011526552446472807
3.316,-0.0231524400960916
3.317,-0.03767468071461337
3.318,-0.015380946798873283
3.319,0.006556841638154308
3.32,0.0014587126813732758
3.321,0.006597680652701615
3.322,0.010104723435998147
3.323,0.029426216977238562
3.324,0.03264698979370765
3.325,0.019437531118717467
3.326,0.0099038617828565
3.327,0.0020833878080695825
3.328,-0.00412227240594161
3.329,0.012531724598258742
3.33,0.009012053334545666
3.331,-0.019892834514052764
3.332,0.00884770188789354
3.333,-0.002486713857272272
3.334,0.003816727644553944
3.335,-0.02835844573513556
3.336,-0.03551776759994036
3.337,-0.028587454143754368
3.338,-0.02081778160154618
3.339,0.0020739550852036763
3.34,0.007312109935819277
3.341,0.013965481078324668
3.342,0.016084571817350492
3.343,0.039900400332012365
3.344,0.012715099096368632
3.345,0.03172447306957382
3.346,0.007837981760053304
3.347,0.024635844633451226
3.348,0.014342585241658542
3.349,0.0035681510202501833
3.35,-0.004565748536698539
3.351,-0.007090756557094434
3.352,-0.0020136839825156197
3.353,-0.006702048670680609
3.354,-0.015363547686868036
3.355,-0.015839727063607683
3.356,-0.020320033047750825
3.357,-0.04763141455640752
3.358,-0.0205102952337108
3.359,-0.024933256525012146
3.36,-0.010528437668463482
3.361,0.00027236996351106754
3.362,0.009162809848450679
3.363,0.014799339174642753
3.364,0.0160253093693941
3.365,0.03572568780306549
3.366,0.006176281040699484
3.367,0.011260712474730301
3.368,0.012311208996030148
3.369,0.007001813175971469
3.37,0.0006067659070275353
3.371,-0.014881702828712803
3.372,0.008965261750486052
3.373,0.011351111885659166
3.374,-0.0254993422316906
3.375,-0.023671103994308017
3.376,-0.02315139800846767
3.377,-0.03523703158956262
3.378,-0.019279992337080158
3.379,-0.021666531926855605
3.38,0.02340758460907942
3.381,0.029803337465447943
3.382,0.02997941106879122
3.383,0.039375507950574894
3.384,0.03492624680586044
3.385,0.011305234997866898
3.386,0.004024405968405056
3.387,0.011016027149330964
3.388,0.01767402330722687
3.389,0.007832911386029564
3.39,-0.01363774173640395
3.391,-0.01020611324390153
3.392,-0.005532974830790745
3.393,-0.006726874574902406
3.394,0.011803168311071713
3.395,-0.026540332527811458
3.396,-0.014547176702818247
3.397,-0.009950439277356046
3.398,-0.0008752119863738028
3.399,-0.017677993216951463
3.4,0.007420959198486573
3.401,0.024344942993345428
3.402,0.030557820473452367
3.403,0.02886636753411681
3.404,0.028976009858244993
3.405,-0.00762890106225202
3.406,0.01975595707577859
3.407,0.01224489050729335
3.408,0.007581256575706356
3.409,0.027659098709225373
3.41,-0.003869124536860482
3.411,-0.005460815574157499
3.412,0.015869917846408687
3.413,-0.013543385318990192
3.414,-0.012676147438808292
3.415,-0.013403638559569551
3.416,-0.010448848244523731
3.417,-0.022016864608640968
3.418,-0.03576948026355482
3.419,-0.018209422650002076
3.42,-0.0028208010282282855
3.421,0.018621001617109903
3.422,0.03360710375744618
3.423,0.034782329834470944
3.424,0.007601377219060453
3.425,0.02907799188119897
3.426,0.016205753623001654
3.427,0.025573013060409294
3.428,0.014992345410562116
3.429,0.01894783575918825
3.43,0.008289568387043207
3.431,0.012775869048597946
3.432,0.0019203232609058757
3.433,-0.0054587303937198356
3.434,0.016292306560447892
3.435,-0.0023003021525771095
3.436,-0.012376283560321194
3.437,-0.03611571684455544
3.438,-0.0349843368932551
3.439,-0.009218869689737189
3.44,0.005449411587966661
3.441,0.013993183890025598
3.442,0.03149943016890084
3.443,0.04722721345593618
3.444,0.0330559246715839
3.445,0.007768632710523487
3.446,0.013304840700247827
3.447,0.004417616961987039
3.448,0.007412674909214181
3.449,0.004537481583960508
3.45,-0.00041359099810854463
3.451,-0.012499277805633983
3.452,-0.0038405532385874935
3.453,-0.00934776799634654
3.454,-0.03498893423882336
3.455,0.010076344557950149
3.456,-0.006489031776458404
3.457,-0.026378981331855178
3.458,-0.02117667509734444
3.459,-0.023126478949624343
3.46,0.021687208718579213
3.461,0.03984276549923458
3.462,0.032391695534686064
3.463,0.042311089152791484
3.464,0.02858928709593139
3.465,0.0065456610350877464
3.466,0.01103556852448282
3.467,0.014520107699821986
3.468,0.007477413560269981
3.469,0.00721998994796697
3.47,0.0041814189385763305
3.471,-2.4496777931406512e-05
3.472,-0.0013095492325140984
3.473,-0.013616212607011843
3.474,-0.012133424345510343
3.475,-0.022568381657691206
3.476,-0.006868086530288975
3.477,-0.04294231019989163
3.478,-0.009099184445030238
3.479,0.003182978035233701
3.48,0.0024372328405231226
3.481,-0.004432796916459068
3.482,0.027939982094200656
3.483,0.032161902023251566
3.484,0.017458026909563662
3.485,0.015487947579919125
3.486,0.031182594004959343
3.487,0.02057656058287826
3.488,0.0035033290760745957
3.489,-0.005843773536893359
3.49,0.0025505501604667514
3.491,-0.0006253599607919701
3.492,0.0038543856015450404
3.493,-0.00763919554419728
3.494,0.0008754695101432456
3.495,0.010352338525429283
3.496,-0.0077682967324899255
3.497,-0.021644195408506504
3.498,-0.021744469333561882
3.499,-0.013525533780887767
3.5,0.017986749012023184
3.501,0.01604354973190472
3.502,0.03278427822215762
3.503,0.03404870778455121
3.504,0.022808374764242877
3.505,0.007591471670119953
3.506,0.02008910327857143
3.507,0.014832513978089918
3.508,0.018889895663580254
3.509,0.0059164237536718295
3.51,0.018130649328762682
3.511,-0.009462466364717391
3.512,0.018814372295231564
3.513,-0.01743267935537028
3.514,-0.0032646068667997836
3.515,-0.0009609273596943857
3.516,-0.023543353726095836
3.517,-0.014874294292368554
3.518,-0.0048700751353811175
3.519,-0.0256577351818109
3.52,0.01641583466621767
3.521,-0.003908998297363551
3.522,0.017350301934623707
3.523,0.04529125962926599
3.524,0.014570205646941028
3.525,-0.006967531281431634
3.526,0.015181089123158603
3.527,0.04914962366931535
3.528,0.02983359716020255
3.529,0.028669157304465977
3.53,0.014381266470429995
3.531,0.021832203077469955
3.532,-0.01642189544339159
3.533,0.004039774670172563
3.534,0.021075927412595064
3.535,-0.005905245091940504
3.536,-0.010012679503867328
3.537,-0.07726371878229471
3.538,-0.048440416060893346
3.539,-0.014138449638417289
3.54,0.002339225057426425
3.541,0.016039431624505173
3.542,-0.0015615304701669455
3.543,-0.0016431062408638966
3.544,0.03809362444494637
3.545,0.021903663798414665
3.546,0.0267596585030186
3.547,0.10476921218774995
3.548,0.081690958590174
3.549,0.03553509616040294
3.55,-0.010391564105330094
3.551,-0.09385645778899139
3.552,-0.027563405910560244
3.553,0.06019705240387337
3.554,0.0047274764046028196
3.555,0.024509673876920792
3.556,-0.05281161130529556
3.557,0.016438769547941885
3.558,-0.02160636420776433
3.559,0.05265888925163811
3.56,0.009223230748233384
3.561,0.046596192005059614
3.562,0.09356960443824175
3.563,0.054721015826657636
3.564,0.04605329095027648
3.565,0.06800014707247881
3.566,0.021459221216847096
3.567,0.029916817389677546
3.568,0.24636783275079008
3.569,0.049022426464123345
3.57,-0.035119824996161064
3.571,-0.02502193334927078
3.572,-0.12382193223926727
3.573,-0.09339613246494868
3.574,-0.005182677701828979
3.575,-0.15452205723284906
3.576,-0.07736230261810742
3.577,-0.0012909703685223192
3.578,0.014475023431568573
3.579,-0.06214568639433597
3.58,0.20115088311420376
3.581,0.07868222502729774
3.582,0.20960160935060043
3.583,0.027881365372349132
3.584,-0.0763398931041553
3.585,-0.047478706274670865
3.586,-0.05238795758178445
3.587,-0.03900394937531007
3.588,0.2831667575459027
3.589,-0.010003088939517532
3.59,-0.271647517400732
3.591,-0.04612998488857302
3.592,-0.15059339371222427
3.593,-0.07991894679822542
3.594,-0.12297363778063757
3.595,0.22440091218573285
3.596,-0.1453399260946902
3.597,0.07306815207599748
3.598,0.2292757202217804
3.599,0.16948743771491637
3.6,0.05277588180017435
3.601,-0.1848022598720634
3.602,-0.055031407723029335
3.603,0.013256180553766211
3.604,-0.2025616340339604
3.605,-0.16196405968539793
3.606,-0.02594513057255325
3.607,0.2191409222074511
3.608,0.01272055060304381
3.609,0.4203289648112668
3.61,0.028140920992020032
3.611,-0.17620739132365945
3.612,0.08592198743256525
3.613,0.45885031463503856
3.614,-0.058386194915358715
3.615,0.05876880642200778
3.616,-0.36371719527597435
3.617,0.08370334095484051
3.618,0.17982944766591138
3.619,0.07746731537547139
3.62,-0.15005178190735816
3.621,-0.4358363006022951
3.622,-0.0338362025035857
3.623,0.16167806853745312
3.624,-0.27768512358591974
3.625,-0.16763114418233768
3.626,-0.3907530892622231
3.627,0.3015755242033078
3.628,0.3053719011300329
3.629,0.13450522973612616
3.63,-0.1377635583350157
3.631,-0.23787282598204304
3.632,0.01934233927787102
3.633,-0.138287413333639
3.634,0.07287254468385446
3.635,0.0059850866502033015
3.636,-0.3420808504775454
3.637,0.3228789409085012
3.638,-0.18446117931479067
3.639,-0.15863352692230684
3.64,-0.3337016046831207
3.641,0.27678013731175743
3.642,0.05061647920331328
3.643,-0.2584275583192184
3.644,0.1419991795625643
3.645,-0.11638755465160411
3.646,0.10881712376921053
3.647,0.3273736204129343
3.648,0.43145031783462356
3.649,0.4925542547435913
3.65,-0.16261318941134822
3.651,0.18315426732482598
3.652,-0.554205490072352
3.653,0.38270000974346263
3.654,-0.021545369170801073
3.655,-0.06748052333057367
3.656,-0.023623354692915943
3.657,-0.34942317460989436
3.658,0.2689873854147478
3.659,-0.6867772935449329
3.66,-0.20415453117436322
3.661,-0.26673704879582855
3.662,-0.25603156346553896
3.663,0.07991641140740248
3.664,0.13347786566304742
3.665,0.09668563316941585
3.666,0.14821474816735364
3.667,0.2457258033286004
3.668,0.743497438940842
3.669,0.3601180766146345
3.67,0.052385729053398104
3.671,-0.33523702680806555
3.672,-0.4719579996860965
3.673,-0.4469469020788715
3.674,-0.26007749200617325
3.675,-0.33449124662547447
3.676,-0.29431953458239557
3.677,0.10525276430629385
3.678,0.5352368481187423
3.679,0.3176930124789785
3.68,0.22700158166899817
3.681,0.22300070929270574
3.682,0.026753776986468823
3.683,-0.17764531538587341
3.684,-0.7613179569693453
3.685,-0.5991626226386122
3.686,0.03313605142703312
3.687,0.006754802910593572
3.688,0.42833169360777895
3.689,0.3612104732587577
3.69,-0.23170041935551122
3.691,-1.1739447656676694
3.692,-0.07437251523546094
3.693,0.4609543542733551
3.694,-0.24951604895478896
3.695,-0.2321163616896594
3.696,0.555621933317827
3.697,0.20385765768133968
3.698,-0.4397990324224193
3.699,-0.13495375596687065
3.7,0.12718420471093092
3.701,-0.4494865992980624
3.702,-0.1899545117577085
3.703,-0.12042733960804584
3.704,0.20024176432528284
3.705,-0.8063398722085231
3.706,0.0658926576503594
3.707,0.8894455332660293
3.708,1.2864792569252745
3.709,0.48108763767651114
3.71,-1.22740686861505
3.711,-0.37846202345533503
3.712,0.26135209808598475
3.713,0.24743174844290028
3.714,1.3532682217603011
3.715,0.7038354314539162
3.716,0.4166712729677725
3.717,0.7718760159781128
3.718,0.5292691984758675
3.719,-1.0178794804639573
3.72,-0.3371450647688357
3.721,0.32599293060730605
3.722,-0.7357077418052509
3.723,-0.489302899450349
3.724,-1.163648719755336
3.725,0.21531687923270776
3.726,0.605727851194112
3.727,0.09405604825290524
3.728,1.1536830708878332
3.729,0.39092071462181327
3.73,0.34741600588679916
3.731,-0.15529597401257023
3.732,0.27412398537467053
3.733,0.5244161451177968
3.734,2.071729571714102
3.735,-0.541720992677617
3.736,-1.231724471004894
3.737,-0.3890213697413157
3.738,-0.8696969631605117
3.739,-0.9064323140314312
3.74,-0.8845151862994429
3.741,-0.9259325148563468
3.742,-0.793187177728508
3.743,0.1626859041430827
3.744,-0.6505448959098032
3.745,-0.5318742344592163
3.746,0.6022595065539236
3.747,0.5205911444804868
3.748,1.3304641562831327
3.749,1.1955391501659391
3.75,-1.2974263017903458
3.751,-2.222017125634202
3.752,-0.30539588195354833
3.753,0.2595072920734909
3.754,1.3358599173379426
3.755,-0.270422499722204
3.756,-0.046156277271886245
3.757,-0.43644874724157345
3.758,0.2708697139974574
3.759,1.2701423440870063
3.76,-1.4019085370760247
3.761,0.2719320620302135
3.762,1.6402555104697796
3.763,0.47179882245758836
3.764,1.0969059121546683
3.765,-0.6984971525439667
3.766,0.09066323614043795
3.767,1.0048177336635746
3.768,-0.18104388529133847
3.769,-0.14884504273058444
3.77,-1.3416547325767343
3.771,-0.7218313113339454
3.772,-0.4009008905561383
3.773,-0.10775439242976739
3.774,0.4944960153313585
3.775,-0.41977763188119194
3.776,0.47786671535512054
3.777,0.041302620381514527
3.778,0.6057951409941863
3.779,0.5091794966184771
3.78,0.9773638616072018
3.781,0.014770358920390277
3.782,1.1239850895707284
3.783,-0.5932161705886982
3.784,-1.0868970535203755
3.785,-0.16960269023893262
3.786,-0.43063644062724044
3.787,0.173243375486878
3.788,1.6863706353032244
3.789,-0.11608340969333975
3.79,-1.0352358826141783
3.791,-0.38815922962641564
3.792,0.2582563638140252
3.793,1.2273101108439521
3.794,0.1745065047090607
3.795,1.203590599010638
3.796,-0.6306818637410021
3.797,-0.21147798459545572
3.798,-0.9587803475530456
3.799,2.248892172110909
3.8,-0.3054584487560581
3.801,-0.06105026023591192
3.802,-0.7940285605453996
3.803,0.31007655429037634
3.804,-1.1936529946658774
3.805,-2.3683120267008837
3.806,-0.4160360635431667
3.807,-0.8412361890689825
3.808,0.4161918086749691
3.809,-1.1642650029202635
3.81,-1.764347860184896
3.811,-0.9054429576290005
3.812,-2.1454843097031304
3.813,-0.7307166991913283
3.814,0.8746374009001707
3.815,0.019048877525347077
3.816,1.9393915784291662
3.817,1.9988340477198114
3.818,-0.11668486291594157
3.819,0.913507682031368
3.82,0.49365812361321676
3.821,-1.0844836557264608
3.822,-1.8983773218333915
3.823,-0.652852929744882
3.824,-1.2408041512703067
3.825,-1.6650416437019904
3.826,-0.12660102551303626
3.827,0.25664050872620575
3.828,0.7916053601475093
3.829,1.4277936252271557
3.83,0.35251699170585604
3.831,-1.826675696220952
3.832,0.6120379964284721
3.833,-1.1098059915059957
3.834,0.13247613958091348
3.835,-0.17362566731846396
3.836,-0.998163257305529
3.837,-0.7893407610461773
3.838,1.8550466104854133
3.839,-0.8521787166149659
3.84,1.8586609383159398
3.841,-0.23311954599157145
3.842,-0.2961937990291411
3.843,0.18352870413258554
3.844,1.9181014235231781
3.845,-1.6572145670588465
3.846,-0.9742847474010463
3.847,0.8267385670006371
3.848,2.383029744569738
3.849,-0.1673451139700789
3.85,-0.10985754857170542
3.851,0.5455151118018731
3.852,-0.6849558380347041
3.853,-0.38399369390343646
3.854,-0.5970042263368021
3.855,0.3565598809346271
3.856,-1.7466055061750683
3.857,1.3787644134291563
3.858,2.08306970459427
3.859,0.5226694443629557
3.86,-0.00960564649425412
3.861,1.0298099197820108
3.862,1.431844877870139
3.863,-0.4386110292154503
3.864,-0.6107695638230627
3.865,-1.801067438297706
3.866,0.6045410493820378
3.867,2.1655846101563827
3.868,0.6198132464237283
3.869,0.537081920980795
3.87,-2.305135282957443
3.871,-2.889297436953565
3.872,-0.9375611784982677
3.873,-1.2877636483811976
3.874,-0.4477626107401816
3.875,-2.1746695248184658
3.876,-0.34156007456859067
3.877,0.03213914189896786
3.878,0.0621326484942382
3.879,0.8277730175068739
3.88,0.8777658792958755
3.881,-0.4107108040096367
3.882,-1.0584428364235456
3.883,2.3360385507639356
3.884,-1.0776995347885223
3.885,-1.0997104572020628
3.886,0.5545160771728236
3.887,4.631791753973828
3.888,0.04068301378114397
3.889,0.9871416210961738
3.89,-2.0345225533209406
3.891,-2.6905722261823386
3.892,-2.162287213548901
3.893,-1.2988403609560495
3.894,0.5099242813976913
3.895,-1.3289746940077845
3.896,1.26839241864241
3.897,0.798343587589412
3.898,1.8181596792645494
3.899,0.7187800454883299
3.9,0.1500902462201603
3.901,0.39635753361922144
3.902,-1.3594702387838895
3.903,-0.7991796995762145
3.904,-2.16755738896497
3.905,-2.7762377406352097
3.906,-3.481989110770919
3.907,2.045637727807809
3.908,0.7279484762676491
3.909,2.1698617444811252
3.91,0.4943195901283039
3.911,-2.914715981042022
3.912,-1.8415602205043378
3.913,3.6997938327083557
3.914,3.2060077204569626
3.915,0.6460415106792988
3.916,0.5612138892468348
3.917,-0.21756503284538872
3.918,1.3867346875903066
3.919,-0.2715765222750742
3.92,-2.5941443914172058
3.921,-2.283268647736409
3.922,-0.7133900131603628
3.923,-2.2013603120409915
3.924,-1.4952977869893194
3.925,-2.945667767670589
3.926,-1.5956317689183719
3.927,2.227612385129192
3.928,2.652304163858867
3.929,1.688908336368305
3.93,1.0468252314656032
3.931,-0.34377183382998466
3.932,1.3970004017156654
3.933,0.17718980491337197
3.934,0.3596960580241158
3.935,-1.4609643234550211
3.936,-1.015711923010919
3.937,0.8280964288471178
3.938,1.6655972227374514
3.939,1.108532498300623
3.94,-2.7679506460308376
3.941,0.5032915220853111
3.942,-2.732368532774697
3.943,0.7240537605198585
3.944,-1.1576057159558555
3.945,-0.006134076493513475
3.946,-1.477325068163629
3.947,3.3704939523384376
3.948,1.1119072970439032
3.949,1.084496656064659
3.95,-1.3701457994218778
3.951,-3.5572490070206375
3.952,-0.9012619320589635
3.953,2.1185041252155257
3.954,3.295192717710632
3.955,-0.5519954405044403
3.956,0.285169335394755
3.957,-0.32033714407877845
3.958,0.7743508106772288
3.959,-0.10140148851701494
3.96,0.23922640605743783
3.961,0.6506341605672578
3.962,-0.35590440757764874
3.963,0.37859611269394955
3.964,-0.15692015364586906
3.965,0.5218415921494424
3.966,-1.1105125410595815
3.967,1.6331078218517925
3.968,4.785355502975172
3.969,2.6374724580594058
3.97,0.6421095920562899
3.971,-2.25887114318119
3.972,-1.3668831300592872
3.973,0.6682677360124343
3.974,1.8020586594879064
3.975,-2.9438148154085075
3.976,-2.2678988471824826
3.977,1.7358354340706055
3.978,0.6607739017228453
3.979,0.3473990381791136
3.98,-0.7665595994646985
3.981,-0.1371048514416351
3.982,-1.073497088065856
3.983,3.022815622093292
3.984,-0.4695195858194177
3.985,-1.2343983638305023
3.986,0.13130771182234702
3.987,2.0465022684882115
3.988,2.7964262040073256
3.989,1.8757173354009322
3.99,-2.2237154536618595
3.991,-2.73806916381822
3.992,-0.5781565748405147
3.993,-0.6787040716305544
3.994,0.5999155523210475
3.995,0.8482625246069475
3.996,1.176416514602677
3.997,-1.4118708580754415
3.998,2.3961942219115704
3.999,1.086975218864589
4.0,1.5062926183773675
4.001,1.0478102521749781
4.002,1.9480355731308663
4.003,1.2737697723406507
4.004,0.34853437206848764
4.005,-0.11091717776461422
4.006,-0.8420026217054419
4.007,0.6028957837861898
4.008,2.7269973588223126
4.009,1.8287142514365426
4.01,-1.1698713817644857
4.011,-1.0538481213934945
4.012,-0.6908207062318589
4.013,-0.26812363162326097
4.014,2.8840250650661856
4.015,0.7967793703542606
4.016,2.8310928051111204
4.017,-1.468607376016285
4.018,0.23134270874247867
4.019,0.6461022620392646
4.02,1.1961959303083838
4.021,-0.29296929150094686
4.022,-0.409788172090432
4.023,-2.292679711534509
4.024,-2.9322674559422572
4.025,-1.3582009938308406
4.026,-2.412399530575949
4.027,0.6043159776619869
4.028,3.111457391875599
4.029,0.5606953747401502
4.03,1.9902758955421382
4.031,0.5341215578290246
4.032,-2.306351882190868
4.033,-0.4362933927152893
4.034,-1.9296675750462489
4.035,-0.8570148960522902
4.036,0.4248589732090877
4.037,-0.8375356043746984
4.038,0.6753489998555887
4.039,-1.921468689530993
4.04,0.366089623463294
4.041,-1.5054560533336452
4.042,-0.5108191591970006
4.043,-0.4543727350522457
4.044,-2.2638480713791873
4.045,-2.291017155546992
4.046,1.3291670918937473
4.047,2.4683929843617345
4.048,4.189317897714053
4.049,2.3150150324549337
4.05,0.010557681874856027
4.051,-3.5008706478698373
4.052,-1.356500446883235
4.053,-0.12631470498784514
4.054,2.3962231255952124
4.055,0.17832469097886108
4.056,0.8059616437375934
4.057,0.1342808442149127
4.058,-0.7011580800295764
4.059,0.45167512725531905
4.06,0.30000387728668465
4.061,-1.1555427680316173
4.062,-0.12160855044158622
4.063,0.21249446419265489
4.064,1.8414228850356746
4.065,-2.9837387300388403
4.066,1.6437578781384328
4.067,0.542775247152797
4.068,0.6649314828502371
4.069,2.5557013914470277
4.07,-0.10663315064058346
4.071,-0.6976094532714798
4.072,-0.7549773844588445
4.073,1.8894572564714842
4.074,0.5250665247080957
4.075,-0.6772737682397019
4.076,-0.2032115440613982
4.077,1.5320523628330298
4.078,0.024884836870488352
4.079,0.3587232071826059
4.08,0.3817924384442579
4.081,-1.9605167599977873
4.082,0.7839618676972249
4.083,-1.814487944084654
4.084,-0.3358189198691572
4.085,-0.056670821407104444
4.086,-1.1066261080386297
4.087,2.7346125605619074
4.088,-0.1957925701970727
4.089,1.8745541153169858
4.09,-0.5395048127162066
4.091,-4.128707428527891
4.092,1.7155126070596398
4.093,-0.09398269657787175
4.094,-0.4154857935233085
4.095,-1.2949614909700973
4.096,-0.04734343442759925
4.097,0.5886911225965096
4.098,1.4635131575226563
4.099,0.9100432094911393
4.1,1.2724135168017852
4.101,-0.3709394774255092
4.102,-2.212851485481185
4.103,-0.5326286554733577
4.104,-3.83000818033535
4.105,-1.3154923266482
4.106,-2.142976497354305
4.107,0.7057498888870088
4.108,2.919201918741934
4.109,-0.23972428207691823
4.11,0.49314080495414564
4.111,-1.8477473926847559
4.112,1.3846656472180312
4.113,0.2855707159440268
4.114,0.21705106477611558
4.115,1.3907681877640683
4.116,-0.2305073524561375
4.117,-0.4540006218917366
4.118,0.2867229983001751
4.119,0.4690972769627865
4.12,1.2361220562297452
4.121,-2.748432294592363
4.122,-0.629777149153242
4.123,-0.09610175748241134
4.124,-1.06266740664301
4.125,-0.11584078176864299
4.126,-0.6916402247459155
4.127,0.9089886459980888
4.128,2.7318139952809686
4.129,1.6306669752453897
4.13,-0.4148553615011051
4.131,-0.2746577764392276
4.132,-0.9654390581197813
4.133,0.005911067613504295
4.134,0.21118671501739417
4.135,1.48333050071769
4.136,-3.7696929490431605
4.137,0.13853628463303702
4.138,0.13365855289097742
4.139,-1.7548901468910716
4.14,-0.18633871917416073
4.141,-0.1811678366782856
4.142,0.18947538657337584
4.143,-2.955928768481072
4.144,0.7831414822851358
4.145,-1.4805671357589276
4.146,0.8115285235003147
4.147,2.3426125377512954
4.148,1.4999133024226186
4.149,2.2229994221925224
4.15,-0.505253071210409
4.151,-3.1661286062386105
4.152,0.3175715374089351
4.153,-0.8415659590912723
4.154,-0.7940039925692024
4.155,-0.9210686280882846
4.156,-0.5873590113974613
4.157,-0.5356590337240179
4.158,0.6397395765062954
4.159,-1.0362844597730856
4.16,-0.7002407843850043
4.161,-0.12011612998716345
4.162,2.0890525399094986
4.163,0.2442183320894474
4.164,0.9711919812019446
4.165,-0.32922278216003736
4.166,-0.2931849151725074
4.167,1.0706659140540566
4.168,1.664318452510659
4.169,1.445279247791957
4.17,0.4957752060478601
4.171,-1.3564048836270364
4.172,-0.21908756694055276
4.173,-1.3111404658484676
4.174,-0.4774994859735884
4.175,-1.0290798465727211
4.176,-0.17887765597210803
4.177,-0.25378988967075766
4.178,1.3907271064248148
4.179,0.02374420495609983
4.18,0.6054158328265983
4.181,0.996354760707717
4.182,-1.360221369303002
4.183,2.1725075565342133
4.184,-0.550298390520394
4.185,-2.5450015752697146
4.186,-0.25195086088330604
4.187,0.6198987165087428
4.188,1.0341403019517834
4.189,1.2287073559297352
4.19,-0.32039038713415624
4.191,-1.3434911306312194
4.192,-0.6295538831203333
4.193,-0.12590211907368912
4.194,1.8879620175389416
4.195,-1.0031323667092795
4.196,0.27034160795074347
4.197,0.5742119352439351
4.198,1.6164334151164172
4.199,0.2178611855914554
4.2,-1.0005889586892518
4.201,0.17963767906688194
4.202,0.19420266310678452
4.203,0.9338029083315068
4.204,-1.8460766206749448
4.205,-0.29776564705772096
4.206,1.1454610216051835
4.207,0.04365400917713475
4.208,0.020257674093877406
4.209,0.24854526353682194
4.21,-0.47209403957065915
4.211,-0.5205557087206433
4.212,-0.8351720594590096
4.213,1.6665422401537808
4.214,-0.06571296157776982
4.215,-0.8650539562654976
4.216,1.0241578698459377
4.217,-1.3838404970839127
4.218,0.40648884909064464
4.219,2.6627980783887386
4.22,-0.16768511388467242
4.221,-1.2592823057135023
4.222,-0.4800610542978729
4.223,-0.5315966169910734
4.224,-0.7463485331248222
4.225,-0.5206718446745063
4.226,-1.1226247760349521
4.227,1.9454916318715885
4.228,1.6015595076991096
4.229,1.5288487777883881
4.23,-0.4505527236904579
4.231,0.37267477765386714
4.232,-0.37479084890814796
4.233,0.6165413470800861
4.234,-0.1499872951691748
4.235,-0.6333386662732463
4.236,0.19102872680776428
4.237,-0.4827294106763407
4.238,-0.5007850763702054
4.239,-0.44884488453931987
4.24,0.12121594986641267
4.241,-0.8322956512142448
4.242,-0.3323988289306813
4.243,-0.1427948414813822
4.244,-1.594178488515455
4.245,-1.401165426233804
4.246,0.3026074955868857
4.247,0.5809338051592681
4.248,2.1837763895222695
4.249,1.5991259962753523
4.25,0.3881133098067635
4.251,0.423220728074899
4.252,-0.5638160800326426
4.253,0.34318766962613634
4.254,-0.32913572760921006
4.255,1.1638864146124137
4.256,0.6495343676403907
4.257,-0.27391669609496916
4.258,0.2968828548806411
4.259,0.942550577278335
4.26,-0.06179269027498258
4.261,-0.3776858596184628
4.262,0.701353713954831
4.263,0.2835271550580391
4.264,0.09003265285852782
4.265,-0.6747361103503239
4.266,-0.8485421738741832
4.267,0.8973362898968759
4.268,1.5717044902656392
4.269,0.4224082136991959
4.27,0.34099121802966925
4.271,-1.3678318802670455
4.272,-1.3351149705885341
4.273,-0.28682033848526817
4.274,-0.11729102243831971
4.275,0.18597838824260898
4.276,-0.6771404029401128
4.277,0.7312862034635825
4.278,1.4159043992769378
4.279,0.4740846773989339
4.28,0.9807053750633554
4.281,-0.3065012734980299
4.282,0.8302090184991282
4.283,0.7239724924587974
4.284,0.26604535770750315
4.285,-0.4285335318674469
4.286,-1.6442955982751946
4.287,0.0383344217021616
4.288,0.34131398253608536
4.289,-0.23450649315133626
4.29,-0.4555831781408661
4.291,-1.0632743886402813
4.292,-0.9433592892005948
4.293,-0.48664812512252875
4.294,-0.07838322046338131
4.295,0.6149725300903177
4.296,-0.228798676809442
4.297,0.05607051831019515
4.298,0.30556458958174054
4.299,0.6170551101706244
4.3,0.4206464718267405
4.301,-1.2583869395279557
4.302,0.43010810798158083
4.303,0.49690641475496317
4.304,-0.8576649895665454
4.305,-1.0225160023654416
4.306,-0.5531006962852881
4.307,-0.0950825450736809
4.308,0.630138456501728
4.309,-0.4708635779055985
4.31,-0.670643475664965
4.311,0.10991671195513986
4.312,-0.5400135195465356
4.313,0.7282563331340298
4.314,0.5221719369383282
4.315,-0.4433946493794641
4.316,0.3057548065562933
4.317,0.12432906809704106
4.318,0.10241891522140892
4.319,0.2619325548541562
4.32,0.11341500108771915
4.321,0.05382112832701023
4.322,0.23767917398767754
4.323,-0.08614260076995513
4.324,-0.8575224627913065
4.325,-0.6034242737708779
4.326,0.8090868970934065
4.327,0.6074479578271899
4.328,1.467501122468384
4.329,0.929470443034757
4.33,0.09676982421701848
4.331,-0.15300704517655597
4.332,-0.08420879544549073
4.333,-0.34288277269472994
4.334,0.24129820595632664
4.335,0.3890534545455772
4.336,-0.3273792685632211
4.337,0.04272747385690277
4.338,0.24999638846517425
4.339,-0.2751474683700474
4.34,-0.25008420131185927
4.341,-0.45244186833385897
4.342,-0.2933062472941477
4.343,-0.389107448292786
4.344,-0.381738362416423
4.345,0.2175690936564507
4.346,-0.19277241631916564
4.347,0.46122751521993327
4.348,0.5016430068443672
4.349,0.721969653577651
4.35,0.2959342781121927
4.351,-0.0604332980010294
4.352,-0.12817059736516662
4.353,-0.08437344251238446
4.354,-0.270954048634202
4.355,0.3454783147619021
4.356,-0.3883781859328951
4.357,0.03015437025125997
4.358,0.27190756974752217
4.359,-0.05849282114118748
4.36,0.2520916216842076
4.361,0.18377317494350934
4.362,0.4793651339397337
4.363,0.03024900164997759
4.364,-0.2585600388676221
4.365,-0.14190230803862489
4.366,0.09587781730048676
4.367,0.3165438876859722
4.368,0.3242082212812993
4.369,-0.16699886145253118
4.37,-0.07136880253639745
4.371,0.03243166506819889
4.372,-0.18286325274501716
4.373,0.03698856986447119
4.374,0.10139687572441852
4.375,0.005428310098092103
4.376,0.047739684996277204
4.377,0.09513492037016388
4.378,0.08097760814360368
4.379,0.02189362606581506
4.38,0.08071097534016872
4.381,0.15425678244021482
4.382,0.06418916363834704
4.383,0.14622617659385287
4.384,0.0421205107952151
4.385,0.012531063301867009
4.386,0.13850593721205365
4.387,0.12198535052123452
4.388,0.01947142863345856
4.389,0.0386842220092214
4.39,-0.13295017858892288
4.391,-0.49644773562100336
4.392,0.03669350982336187
4.393,0.01965164855747661
4.394,0.13150402110560366
4.395,0.20144071072588637
4.396,-0.07042835276503173
4.397,0.13427074625704388
4.398,0.13517155835532382
4.399,0.12074860697674614
4.4,-0.010215178568528004
4.401,0.24031501695687624
4.402,-0.01669400523404072
4.403,0.08461059622222625
4.404,-0.2822790938538086
4.405,0.000699997299820853
4.406,0.035898254401160005
4.407,0.07637451960214159
4.408,0.13659271348905716
4.409,0.13910419359101142
4.41,0.16820227105976873
4.411,-0.26817061184310836
4.412,0.024201706923456683
4.413,-0.04055687553881335
4.414,0.0964435798102622
4.415,0.0376672978590515
4.416,-0.018154169262000586
4.417,0.006643294498292398
4.418,-0.0420566225853088
4.419,0.09673411374244631
4.42,-0.11995289736498158
4.421,0.014723010971727082
4.422,-0.01470563498984144
4.423,-0.08090542762060357
4.424,-0.03953237510995439
4.425,-0.17796379854588099
4.426,-0.004689613015706405
4.427,-0.009298859400557143
4.428,0.17491151802744295
4.429,0.04601938096088076
4.43,-0.02756930737207033
4.431,-0.03718321871669419
4.432,-0.045483514032155815
4.433,0.03212089656327956
4.434,-0.038960359762778195
4.435,0.04481832206142083
4.436,0.0721810467717926
4.437,0.10642976244736935
4.438,-0.0036177705671340023
4.439,0.03940386043631405
4.44,-0.09393842019193811
4.441,0.06852061304474383
4.442,0.06178654980257598
4.443,0.020617290993495272
4.444,0.042886947779533766
4.445,-0.010898429718825698
4.446,0.006003614236928679
4.447,0.09440358701444052
4.448,0.0703874075602034
4.449,0.11537580358400391
4.45,-0.02307853985808715
4.451,-0.05469275805400607
4.452,-0.026275705231841164
4.453,0.029363142513912817
4.454,0.004820242167518597
4.455,-0.04001761954427971
4.456,-0.050197664419526056
4.457,-0.03467360707493132
4.458,-0.0462304521597802
4.459,-0.010060528708636014
4.46,0.06822083763925163
4.461,0.03537199558412097
4.462,0.05025611255551681
4.463,0.05540690692934097
4.464,0.02528857490756646
4.465,0.02302168417659788
4.466,0.050226374333178225
4.467,0.04263678203123871
4.468,0.03299457320866718
4.469,0.04958532099164975
4.47,0.010323797944323396
4.471,0.024144055258779835
4.472,-0.01036063159267107
4.473,0.011670000990575715
4.474,0.028865770096011323
4.475,0.0013470184310168318
4.476,-0.014679495357323925
4.477,-0.0007442289219544256
4.478,-0.021949552747847836
4.479,0.014253753641292173
4.48,0.005891405901370782
4.481,0.03465745180871589
4.482,0.04023791405721619
4.483,0.051743220896986436
4.484,0.037764452831704334
4.485,0.015235431951492344
4.486,0.029278244057673368
4.487,0.01869612686959421
4.488,0.033233941602765986
4.489,0.021297930431874706
4.49,0.01814043519842251
4.491,0.0005539897030389087
4.492,0.0024072232235005393
4.493,0.00446463076335921
4.494,0.013970646108013183
4.495,0.018083362766423826
4.496,-0.013531794343360283
4.497,-0.00018242616794588926
4.498,-0.03146970190354152
4.499,-0.011842701281713127
4.5,0.006592555325629276
4.501,0.018736342661719856
4.502,0.026321575941719938
4.503,0.04747958373673417
4.504,0.03591062449427794
4.505,0.03486288197829189
4.506,0.03315543242957189
4.507,0.02689485266599012
4.508,0.029579289341169587
4.509,0.019630839813476627
4.51,0.004085954907717007
4.511,0.022163700021677297
4.512,0.0030187719055688577
4.513,-0.0016833783687142875
4.514,0.0038809861843699493
4.515,-0.00828657690796507
4.516,-0.010315868607047599
4.517,-0.00800005569526556
4.518,-0.006765893097108355
4.519,-0.009332544596226792
4.52,0.010848714913238418
4.521,0.04254905539059342
4.522,0.04666462545439321
4.523,0.06364227972013733
4.524,0.04939348982128402
4.525,0.042051538832364635
4.526,0.01191067537571656
4.527,0.03141481836908916
4.528,0.02200700013094206
4.529,0.014351635305670761
4.53,0.017170214609302167
4.531,0.02057072937595035
4.532,0.013450150022024083
4.533,-0.0015813257906296414
4.534,0.01261447007449783
4.535,-0.0060057370763769505
4.536,-0.0044472358000173726
4.537,-0.014947704371237608
4.538,-0.012912686692792628
